0.2075,0.8618,0.0342,0.0024,0.0024,0.0024,0.0024,0.293,0.0952,0.293
0.1831,0.8691,0.0513,0.0049,0.0024,0.0024,0.0024,0.3442,0.1099,0.3101
0.166,0.8179,0.0659,0.0122,0.0024,0.0024,0.0024,0.4102,0.0732,0.2954
0.1636,0.8643,0.0537,0.0024,0.0024,0.0024,0.0073,0.4395,0.0879,0.293
0.1587,0.7544,0.0537,0.0024,0.0024,0.0024,0.0098,0.4639,0.0757,0.293
0.1636,0.8667,0.0684,0.0098,0.0049,0.0024,0.0024,0.3369,0.0659,0.2734
0.1782,0.7617,0.0757,0.0024,0.0024,0.0024,0.0024,0.1782,0.0757,0.3027
0.1123,0.3882,0.0171,0.0024,0.0024,0.0024,0.0024,0.2612,0.022,0.2783
0.0659,0.0439,0.0024,0.0024,0.0024,0.21,0.0977,0.2759,0.0024,0.3101
0.0659,0.0024,0.0024,0.0024,0.0024,0.0732,0.6738,0.4663,0.0024,0.3613
0.0513,0.0024,0.0024,0.0024,0.0024,0.0757,0.5396,0.376,0.0024,0.3564
0.0488,0.0024,0.0024,0.0024,0.0024,0.0635,0.5176,0.4028,0.0024,0.4077
0.0684,0.0024,0.0024,0.0024,0.0024,0.0244,0.3125,0.8667,0.0024,0.3101
0.0854,0.0146,0.0024,0.0024,0.0024,0.022,0.2881,0.8667,0.0024,0.3027
0.0586,0.3516,0.0024,0.0024,0.0024,0.0171,0.1807,0.5737,0.0024,0.3101
0.0659,0.5933,0.0073,0.0024,0.0024,0.0024,0.1196,0.5664,0.0024,0.3394
0.0562,0.6519,0.0049,0.0024,0.0024,0.0049,0.105,0.4443,0.0024,0.3369
0.0391,0.1245,0.0024,0.0024,0.0024,0.0024,0.0977,0.3516,0.0024,0.376
0.022,0.0024,0.0049,0.0024,0.0024,0.0024,0.144,0.3662,0.0024,0.3638
0.0146,0.0024,0.0024,0.0024,0.0024,0.0024,0.0952,0.2075,0.0024,0.3174
0.0464,0.0024,0.0024,0.0024,0.0024,0.0024,0.0854,0.2856,0.0024,0.3345
0.0098,0.0024,0.0024,0.0024,0.0024,0.0024,0.0903,0.1831,0.0024,0.3174
0.0098,0.0024,0.0024,0.0024,0.0024,0.0024,0.083,0.1685,0.0024,0.3223
0.0171,0.0024,0.0024,0.0024,0.0024,0.0024,0.105,0.1489,0.0024,0.3125
0.0171,0.0024,0.0024,0.0024,0.0024,0.0024,0.1172,0.1538,0.0024,0.3101
0.0049,0.0024,0.0024,0.0024,0.0049,0.0024,0.0928,0.1807,0.0024,0.3125
0.0269,0.0024,0.0024,0.0049,0.0024,0.0024,0.0854,0.2515,0.0024,0.3345
0.0049,0.0024,0.0024,0.0024,0.0024,0.0024,0.0854,0.1904,0.0024,0.3247
0.0122,0.0024,0.0024,0.0024,0.0024,0.0024,0.0903,0.2075,0.0024,0.2881
0.0098,0.0024,0.0024,0.0024,0.0024,0.0024,0.083,0.2075,0.0024,0.2979
0.0195,0.0024,0.0049,0.0024,0.0024,0.0024,0.0537,0.2319,0.0024,0.2881
0.0171,0.0024,0.0024,0.0024,0.0024,0.0024,0.1123,0.2637,0.0024,0.3101
0.0293,0.0024,0.0049,0.0024,0.0024,0.0024,0.1074,0.2441,0.0024,0.3101
0.0098,0.0024,0.0024,0.0024,0.0024,0.0024,0.0903,0.2026,0.0024,0.2954
0.0122,0.0024,0.0024,0.0024,0.0024,0.0024,0.0684,0.2417,0.0024,0.293
0.0293,0.022,0.0024,0.0024,0.0024,0.0024,0.1147,0.2783,0.0024,0.2954
0.0391,0.1904,0.0024,0.0024,0.0024,0.0024,0.1099,0.2661,0.0024,0.2881
0.0684,0.3369,0.0024,0.0024,0.0024,0.0195,0.1611,0.4468,0.0024,0.3052
0.0537,0.3076,0.0024,0.0024,0.0024,0.0024,0.1343,0.2979,0.0024,0.3345
0.0708,0.293,0.0024,0.0024,0.0024,0.0073,0.1709,0.3687,0.0024,0.332
0.0659,0.2954,0.0024,0.0024,0.0024,0.0098,0.1611,0.3687,0.0024,0.3394
0.0439,0.2783,0.0024,0.0024,0.0024,0.0098,0.1392,0.2832,0.0024,0.3271
0.0513,0.2979,0.0024,0.0024,0.0024,0.0073,0.1685,0.3809,0.0024,0.3223
0.0659,0.3101,0.0024,0.0049,0.0024,0.0098,0.1538,0.3003,0.0024,0.3125
0.0684,0.2197,0.0024,0.0024,0.0024,0.0122,0.1538,0.3101,0.0024,0.3076
0.0586,0.2539,0.0024,0.0024,0.0024,0.0098,0.1416,0.2734,0.0024,0.3101
0.0513,0.2148,0.0049,0.0024,0.0024,0.0049,0.1123,0.3589,0.0024,0.3125
0.0317,0.3052,0.0049,0.0024,0.0024,0.0024,0.1074,0.2612,0.0024,0.332
0.0562,0.2808,0.0024,0.0024,0.0024,0.0146,0.1318,0.271,0.0024,0.3247
0.0732,0.2783,0.0024,0.0024,0.0024,0.0024,0.1636,0.4419,0.0024,0.3003
0.0366,0.3296,0.0024,0.0024,0.0024,0.0024,0.1416,0.2637,0.0024,0.3076
0.061,0.3906,0.0024,0.0024,0.0024,0.0098,0.1514,0.4126,0.0024,0.3174
0.0562,0.293,0.0024,0.0024,0.0024,0.0024,0.1465,0.3296,0.0024,0.3149
0.0635,0.3418,0.0024,0.0024,0.0049,0.0049,0.1318,0.5029,0.0024,0.2979
0.0586,0.3174,0.0024,0.0024,0.0024,0.0049,0.105,0.4395,0.0024,0.3223
0.0562,0.2148,0.0049,0.0024,0.0024,0.0049,0.1172,0.3516,0.0024,0.3125
0.0732,0.2295,0.0024,0.0024,0.0024,0.0024,0.1514,0.3711,0.0024,0.3003
0.0757,0.2856,0.0024,0.0024,0.0024,0.0024,0.1538,0.376,0.0024,0.2979
0.0732,0.354,0.0024,0.0024,0.0024,0.0024,0.1318,0.3955,0.0024,0.3052
0.0684,0.3516,0.0024,0.0024,0.0024,0.0049,0.1099,0.376,0.0024,0.3198
0.0928,0.4102,0.0024,0.0024,0.0024,0.0024,0.1489,0.3613,0.0024,0.3003
0.0977,0.4224,0.0024,0.0024,0.0024,0.0024,0.144,0.4395,0.0024,0.3345
0.0635,0.3149,0.0024,0.0024,0.0024,0.0024,0.1343,0.3296,0.0024,0.3052
0.0562,0.4175,0.0024,0.0024,0.0024,0.0024,0.1147,0.2905,0.0024,0.3125
0.0464,0.4858,0.0024,0.0024,0.0024,0.0024,0.1074,0.3369,0.0024,0.293
0.0562,0.3076,0.0024,0.0024,0.0024,0.0024,0.1709,0.4785,0.0024,0.2686
0.0757,0.4712,0.0024,0.0024,0.0024,0.0024,0.1587,0.437,0.0024,0.293
0.0903,0.4663,0.0024,0.0024,0.0024,0.0049,0.1416,0.3613,0.0024,0.3125
0.0684,0.4321,0.0024,0.0024,0.0024,0.0049,0.1245,0.3027,0.0024,0.3247
0.0586,0.3906,0.0024,0.0024,0.0024,0.0024,0.0928,0.3247,0.0024,0.3125
0.0879,0.459,0.0024,0.0024,0.0024,0.0073,0.1709,0.4883,0.0024,0.332
0.061,0.3418,0.0024,0.0024,0.0024,0.0049,0.1563,0.354,0.0024,0.3003
0.0586,0.5005,0.0024,0.0024,0.0024,0.0171,0.1587,0.3979,0.0024,0.3174
0.0586,0.3442,0.0024,0.0024,0.0024,0.0073,0.1245,0.3931,0.0024,0.293
0.0708,0.4053,0.0024,0.0024,0.0024,0.0024,0.1538,0.4077,0.0024,0.3247
0.0708,0.5176,0.0024,0.0024,0.0024,0.0024,0.1416,0.4517,0.0024,0.3101
0.0488,0.4736,0.0024,0.0024,0.0049,0.0024,0.105,0.3613,0.0024,0.3174
0.0488,0.4907,0.0024,0.0024,0.0024,0.0024,0.105,0.332,0.0024,0.3174
0.0659,0.415,0.0024,0.0024,0.0024,0.0024,0.1074,0.4419,0.0024,0.293
0.0537,0.4175,0.0024,0.0024,0.0024,0.0024,0.1025,0.4028,0.0024,0.2979
0.0562,0.4004,0.0024,0.0024,0.0024,0.0024,0.105,0.4395,0.0024,0.3052
0.0464,0.3271,0.0024,0.0024,0.0024,0.0049,0.127,0.4883,0.0024,0.3125
0.0342,0.2319,0.0024,0.0024,0.0024,0.0024,0.1367,0.415,0.0024,0.3101
0.0391,0.0977,0.0024,0.0024,0.0024,0.0024,0.1221,0.3613,0.0024,0.2881
0.0659,0.332,0.0024,0.0024,0.0024,0.0024,0.1831,0.4102,0.0024,0.3174
0.0659,0.2588,0.0024,0.0024,0.0024,0.0024,0.1465,0.437,0.0024,0.3296
0.061,0.2051,0.0024,0.0024,0.0024,0.0073,0.1367,0.4688,0.0024,0.3442
0.061,0.3101,0.0024,0.0024,0.0024,0.0049,0.1343,0.3955,0.0024,0.3394
0.0757,0.2588,0.0024,0.0024,0.0024,0.0024,0.1489,0.3931,0.0024,0.3125
0.083,0.376,0.0024,0.0024,0.0024,0.0024,0.1416,0.3931,0.0024,0.3027
0.0806,0.4639,0.0024,0.0024,0.0049,0.0024,0.1709,0.459,0.0024,0.2954
0.105,0.5029,0.0024,0.0024,0.0024,0.0049,0.4321,0.4517,0.0024,0.3101
0.1001,0.5225,0.0024,0.0024,0.0024,0.0073,0.5713,0.4297,0.0024,0.3149
0.0586,0.3662,0.0024,0.0024,0.0024,0.0146,0.5151,0.3662,0.0024,0.2979
0.0635,0.3223,0.0024,0.0024,0.0049,0.0122,0.6616,0.4712,0.0024,0.3101
0.0708,0.3955,0.0024,0.0024,0.0049,0.0122,0.6104,0.4102,0.0024,0.3174
0.0708,0.4395,0.0024,0.0024,0.0024,0.0122,0.6152,0.3662,0.0024,0.3101
0.0464,0.4834,0.0049,0.0024,0.0024,0.0171,1.0864,0.3833,0.0024,0.3418
0.0781,0.5811,0.0024,0.0024,0.0024,0.0049,1.0278,0.3613,0.0024,0.3198
0.0757,0.3003,0.0049,0.0024,0.0024,0.0049,0.3564,0.3223,0.0024,0.3296
0.0732,0.2319,0.0024,0.0024,0.0024,0.0049,0.3784,0.332,0.0024,0.3247
0.0732,0.2539,0.0024,0.0024,0.0024,0.0122,0.4248,0.3906,0.0024,0.3101
0.0659,0.1758,0.0024,0.0024,0.0024,0.0122,0.3564,0.3345,0.0024,0.2979
0.0732,0.188,0.0024,0.0024,0.0024,0.0171,0.3369,0.3638,0.0024,0.3052
0.0854,0.2612,0.0049,0.0024,0.0024,0.0171,0.3052,0.3809,0.0024,0.3149
0.0562,0.4224,0.0024,0.0024,0.0024,0.0122,0.3687,0.3955,0.0024,0.3076
0.0562,0.4785,0.0024,0.0024,0.0024,0.0024,0.2295,0.4102,0.0024,0.332
0.0513,0.4053,0.0024,0.0024,0.0024,0.0024,0.1978,0.3638,0.0024,0.3174
0.061,0.437,0.0024,0.0024,0.0049,0.0024,0.1831,0.3174,0.0024,0.3149
0.0659,0.3052,0.0024,0.0024,0.0024,0.0024,0.1294,0.4077,0.0024,0.3101
0.0537,0.3906,0.0024,0.0024,0.0024,0.0024,0.105,0.3735,0.0024,0.3369
0.0537,0.4053,0.0024,0.0024,0.0024,0.0024,0.166,0.4199,0.0024,0.3223
0.0854,0.4443,0.0024,0.0024,0.0024,0.0098,0.1343,0.4102,0.0024,0.3174
0.0684,0.3247,0.0024,0.0024,0.0024,0.0073,0.1245,0.3491,0.0024,0.3125
0.0464,0.3247,0.0024,0.0024,0.0024,0.0024,0.1245,0.293,0.0024,0.3027
0.0537,0.3882,0.0024,0.0024,0.0024,0.0073,0.1367,0.4053,0.0024,0.3174
0.061,0.4932,0.0049,0.0024,0.0049,0.0049,0.1636,0.4248,0.0024,0.3442
0.0806,0.5713,0.0024,0.0024,0.0049,0.0049,0.1538,0.4346,0.0024,0.354
0.0537,0.2271,0.0024,0.0024,0.0024,0.0024,0.1489,0.3516,0.0024,0.3247
0.0513,0.2905,0.0024,0.0024,0.0024,0.0146,0.1782,0.4053,0.0024,0.3271
0.0562,0.3467,0.0024,0.0024,0.0024,0.0122,0.1733,0.4102,0.0024,0.3271
0.061,0.3418,0.0024,0.0024,0.0024,0.0024,0.1855,0.4224,0.0024,0.3589
0.0732,0.5298,0.0024,0.0024,0.0024,0.0146,0.1855,0.3491,0.0024,0.354
0.0928,0.5347,0.0024,0.0024,0.0024,0.0073,0.1611,0.5029,0.0024,0.3125
0.083,0.5542,0.0024,0.0024,0.0024,0.0098,0.1685,0.5371,0.0024,0.3149
0.0781,0.5371,0.0024,0.0024,0.0024,0.0122,0.1587,0.4321,0.0024,0.3394
0.061,0.3369,0.0024,0.0024,0.0024,0.0049,0.1611,0.4443,0.0024,0.332
0.0977,0.459,0.0024,0.0024,0.0024,0.0098,0.1709,0.5371,0.0024,0.3491
0.144,0.7056,0.0098,0.0024,0.0049,0.0146,0.21,0.6274,0.0073,0.3345
0.1001,0.3931,0.0024,0.0024,0.0024,0.0122,0.1709,0.5933,0.0024,0.3101
0.0708,0.5298,0.0024,0.0024,0.0049,0.0049,0.1807,0.5615,0.0024,0.3491
0.0659,0.4736,0.0024,0.0024,0.0024,0.0024,0.1294,0.3394,0.0024,0.3613
0.0806,0.4785,0.0024,0.0024,0.0024,0.0024,0.1538,0.4126,0.0073,0.3174
0.0562,0.3711,0.0024,0.0024,0.0024,0.0024,0.1099,0.2612,0.0024,0.3418
0.0439,0.4517,0.0024,0.0024,0.0024,0.0049,0.1245,0.1953,0.0024,0.3271
0.0635,0.4028,0.0024,0.0024,0.0024,0.0122,0.1074,0.332,0.0024,0.3198
0.0586,0.3809,0.0024,0.0024,0.0049,0.0024,0.1538,0.2881,0.0024,0.3467
0.0635,0.4517,0.0024,0.0024,0.0024,0.0024,0.1416,0.3271,0.0024,0.3491
0.0806,0.542,0.0024,0.0024,0.0024,0.0049,0.1538,0.3564,0.0024,0.3638
0.061,0.5737,0.0024,0.0024,0.0024,0.0024,0.1245,0.21,0.0024,0.332
0.0781,0.481,0.0024,0.0024,0.0024,0.0024,0.1465,0.3613,0.0024,0.3296
0.0586,0.415,0.0024,0.0024,0.0024,0.0073,0.1196,0.3003,0.0024,0.3296
0.0708,0.5884,0.0024,0.0024,0.0024,0.0024,0.1172,0.3052,0.0024,0.3247
0.0854,0.5029,0.0024,0.0024,0.0024,0.0024,0.1343,0.3418,0.0024,0.3174
0.0635,0.4248,0.0024,0.0024,0.0024,0.0024,0.1196,0.3369,0.0049,0.3174
0.0488,0.3589,0.0024,0.0024,0.0024,0.0024,0.1343,0.2563,0.0024,0.3247
0.0659,0.3516,0.0024,0.0024,0.0024,0.0024,0.105,0.3149,0.0024,0.3174
0.0586,0.4834,0.0024,0.0024,0.0024,0.0024,0.1074,0.2979,0.0024,0.3125
0.0562,0.5664,0.0024,0.0024,0.0024,0.0024,0.1538,0.2881,0.0024,0.3247
0.0586,0.6055,0.0024,0.0024,0.0024,0.0024,0.1538,0.2588,0.0024,0.3027
0.0806,0.5859,0.0024,0.0024,0.0024,0.0024,0.1416,0.3101,0.0024,0.293
0.0684,0.3467,0.0024,0.0024,0.0024,0.0024,0.1196,0.2612,0.0024,0.3491
0.0781,0.3833,0.0024,0.0024,0.0024,0.0024,0.1758,0.3638,0.0024,0.3394
0.0659,0.3271,0.0049,0.0024,0.0024,0.0024,0.1587,0.2954,0.0024,0.3369
0.0586,0.4102,0.0024,0.0024,0.0024,0.0024,0.1611,0.2637,0.0024,0.3394
0.0439,0.5396,0.0024,0.0024,0.0024,0.0049,0.1392,0.3418,0.0024,0.2979
0.1001,0.4077,0.0024,0.0024,0.0024,0.0171,0.249,0.4004,0.0024,0.3149
0.0732,0.3223,0.0024,0.0024,0.0024,0.0098,0.2393,0.3662,0.0024,0.3101
0.0488,0.2539,0.0024,0.0024,0.0024,0.0049,0.2295,0.3174,0.0024,0.3223
0.0488,0.2832,0.0024,0.0024,0.0024,0.0049,0.2344,0.293,0.0024,0.3345
0.0684,0.6494,0.0024,0.0024,0.0024,0.0146,0.1929,0.3662,0.0024,0.3223
0.0464,0.3882,0.0024,0.0024,0.0024,0.0024,0.2319,0.3491,0.0024,0.3101
0.061,0.6079,0.0024,0.0024,0.0024,0.0098,0.7153,0.5273,0.0024,0.3174
0.061,0.5688,0.0024,0.0024,0.0024,0.0098,0.8301,0.4639,0.0024,0.3174
0.0854,0.6445,0.0024,0.0024,0.0024,0.0073,0.8667,0.376,0.0024,0.3198
0.0684,0.3589,0.0049,0.0024,0.0024,0.0049,0.5176,0.3101,0.0024,0.332
0.0586,0.5444,0.0024,0.0024,0.0024,0.0024,0.4688,0.354,0.0024,0.3101
0.061,0.459,0.0049,0.0024,0.0024,0.0049,0.4956,0.3174,0.0024,0.3052
0.0732,0.4077,0.0049,0.0024,0.0024,0.0024,0.5396,0.3101,0.0024,0.2979
0.0903,0.5151,0.0049,0.0024,0.0024,0.0049,0.8081,0.3174,0.0024,0.3027
0.0366,0.4932,0.0024,0.0024,0.0024,0.0024,0.5859,0.2515,0.0024,0.3076
0.0903,0.4004,0.0024,0.0024,0.0024,0.0146,0.4199,0.3638,0.0024,0.3076
0.083,0.3882,0.0024,0.0024,0.0024,0.0171,0.4297,0.3711,0.0024,0.3101
0.0391,0.4541,0.0024,0.0024,0.0024,0.0024,0.5615,0.3467,0.0024,0.3345
0.0684,0.2856,0.0024,0.0024,0.0024,0.0024,0.3271,0.3223,0.0024,0.2954
0.0562,0.3125,0.0024,0.0024,0.0024,0.0049,0.2588,0.2979,0.0024,0.2979
0.0342,0.459,0.0024,0.0024,0.0024,0.0122,0.3979,0.1904,0.0024,0.3223
0.0854,0.6714,0.0024,0.0024,0.0024,0.0024,0.2295,0.354,0.0024,0.3076
0.0562,0.5444,0.0024,0.0024,0.0024,0.0122,0.1636,0.249,0.0024,0.2954
0.0586,0.6396,0.0024,0.0024,0.0024,0.0098,0.2124,0.3198,0.0073,0.3101
0.0562,0.6885,0.0024,0.0024,0.0024,0.0024,0.2075,0.2734,0.0024,0.3271
0.0659,0.5542,0.0024,0.0024,0.0024,0.0024,0.2368,0.2563,0.0024,0.3101
0.0732,0.4883,0.0024,0.0024,0.0024,0.0024,0.2368,0.2246,0.0024,0.332
0.0488,0.3613,0.0024,0.0024,0.0024,0.0024,0.1514,0.188,0.0024,0.3101
0.0464,0.3247,0.0024,0.0024,0.0024,0.0024,0.1392,0.1782,0.0024,0.3125
0.0439,0.4199,0.0024,0.0024,0.0024,0.0073,0.1953,0.2075,0.0024,0.2783
0.0415,0.4688,0.0024,0.0024,0.0024,0.0024,0.1587,0.1855,0.0024,0.3003
0.0708,0.2563,0.0024,0.0024,0.0024,0.0122,0.1831,0.4956,0.0024,0.3174
0.0513,0.4102,0.0024,0.0024,0.0024,0.0024,0.1245,0.2734,0.0024,0.3271
0.061,0.5005,0.0024,0.0024,0.0024,0.0024,0.127,0.3345,0.0024,0.3247
0.0732,0.5396,0.0024,0.0024,0.0049,0.0049,0.1343,0.3467,0.0073,0.3174
0.0806,0.4761,0.0024,0.0024,0.0024,0.0024,0.1416,0.3247,0.0024,0.293
0.0684,0.4419,0.0024,0.0024,0.0024,0.0024,0.127,0.3906,0.0024,0.2734
0.0488,0.3418,0.0024,0.0024,0.0024,0.0024,0.1318,0.2344,0.0024,0.3101
0.0488,0.3979,0.0024,0.0024,0.0024,0.0024,0.1245,0.2075,0.0024,0.3076
0.0464,0.459,0.0024,0.0024,0.0024,0.0024,0.1245,0.2148,0.0024,0.3101
0.0537,0.5298,0.0024,0.0024,0.0024,0.0024,0.1367,0.293,0.0024,0.3149
0.0415,0.3467,0.0024,0.0024,0.0049,0.0024,0.0854,0.2661,0.0024,0.3076
0.0659,0.4761,0.0024,0.0024,0.0024,0.0024,0.1245,0.2368,0.0073,0.2856
0.0537,0.1074,0.0049,0.0024,0.0024,0.0024,0.1611,0.2954,0.0024,0.3101
0.061,0.5884,0.0024,0.0024,0.0024,0.0024,0.127,0.293,0.0073,0.3149
0.0537,0.3809,0.0024,0.0024,0.0024,0.0024,0.105,0.271,0.0024,0.3076
0.061,0.3833,0.0024,0.0024,0.0024,0.0024,0.1343,0.3174,0.0024,0.293
0.0415,0.2856,0.0024,0.0024,0.0024,0.0024,0.2246,0.3369,0.0024,0.293
0.0366,0.2637,0.0024,0.0024,0.0024,0.0024,0.249,0.3027,0.0024,0.2808
0.0317,0.5518,0.0024,0.0024,0.0024,0.0024,0.1465,0.2295,0.0024,0.3076
0.0464,0.5737,0.0024,0.0024,0.0024,0.0024,0.1807,0.1953,0.0024,0.2954
0.0513,0.5127,0.0049,0.0024,0.0024,0.0024,0.4956,0.1929,0.0024,0.2954
0.0586,0.4175,0.0024,0.0024,0.0024,0.022,0.686,0.2417,0.0024,0.2808
0.0684,0.3516,0.0024,0.0024,0.0024,0.0269,1.0596,0.2832,0.0024,0.2905
0.0537,0.4834,0.0024,0.0024,0.0024,0.0024,0.4443,0.2759,0.0024,0.2563
0.0537,0.4248,0.0049,0.0024,0.0024,0.0024,0.437,0.2026,0.0024,0.2905
0.0586,0.6055,0.0049,0.0024,0.0024,0.0024,0.5591,0.2075,0.0073,0.2979
0.061,0.4907,0.0024,0.0024,0.0024,0.0098,0.4565,0.2173,0.0049,0.3052
0.0391,0.5371,0.0024,0.0024,0.0024,0.0024,0.3198,0.1855,0.0024,0.3027
0.0586,0.5811,0.0024,0.0024,0.0024,0.0073,0.3076,0.188,0.0024,0.2954
0.0635,0.6055,0.0024,0.0049,0.0024,0.0024,0.2539,0.1831,0.0024,0.3003
0.0732,0.6543,0.0024,0.0024,0.0024,0.0073,0.2417,0.2344,0.0024,0.3052
0.0317,0.5273,0.0024,0.0024,0.0024,0.0024,0.2075,0.1929,0.0024,0.2954
0.0342,0.4663,0.0024,0.0024,0.0024,0.0024,0.1709,0.2051,0.0024,0.2979
0.0244,0.2661,0.0024,0.0024,0.0024,0.0024,0.1636,0.2344,0.0024,0.3052
0.0122,0.3394,0.0024,0.0024,0.0024,0.0024,0.1782,0.1489,0.0024,0.3149
0.0049,0.2222,0.0024,0.0024,0.0024,0.0024,0.2197,0.1416,0.0024,0.3101
0.022,0.3882,0.0024,0.0024,0.0024,0.0024,0.1953,0.1758,0.0024,0.332
0.0293,0.5347,0.0024,0.0024,0.0024,0.0024,0.1978,0.1465,0.0024,0.3149
0.0146,0.5054,0.0049,0.0024,0.0024,0.0024,0.1733,0.1831,0.0073,0.2954
0.0317,0.6055,0.0024,0.0024,0.0024,0.0024,0.4565,0.1782,0.0024,0.2979
0.0269,0.6519,0.0024,0.0024,0.0024,0.0024,0.3906,0.1953,0.0024,0.2881
0.0537,0.5469,0.0024,0.0024,0.0024,0.0073,0.5713,0.2856,0.0024,0.3223
0.061,0.6128,0.0024,0.0024,0.0024,0.0024,0.5029,0.3101,0.0024,0.3003
0.0659,0.564,0.0024,0.0024,0.0024,0.0024,0.4932,0.3101,0.0024,0.3076
0.0391,0.5444,0.0024,0.0024,0.0024,0.0024,0.3735,0.2905,0.0024,0.2832
0.0537,0.686,0.0049,0.0024,0.0024,0.0098,0.4565,0.2417,0.0049,0.3247
0.0537,0.7422,0.0049,0.0024,0.0024,0.0024,0.481,0.1904,0.0024,0.3003
0.0488,0.6226,0.0024,0.0024,0.0024,0.0024,0.5078,0.1733,0.0024,0.2954
0.0537,0.6299,0.0024,0.0024,0.0024,0.0024,0.4297,0.2051,0.0024,0.3076
0.0488,0.5762,0.0024,0.0024,0.0024,0.0024,0.3882,0.2075,0.0024,0.3052
0.0464,0.6055,0.0024,0.0024,0.0024,0.0024,0.3027,0.2759,0.0024,0.332
0.061,0.5249,0.0024,0.0024,0.0024,0.0073,0.3638,0.2417,0.0024,0.3345
0.0635,0.4883,0.0024,0.0024,0.0024,0.0098,0.3906,0.2905,0.0024,0.3394
0.0366,0.3271,0.0024,0.0024,0.0024,0.0098,0.481,0.293,0.0024,0.3345
0.0659,0.769,0.0073,0.0024,0.0024,0.0024,0.3198,0.3174,0.0098,0.3638
0.061,0.73,0.0073,0.0024,0.0049,0.0024,0.4175,0.3076,0.0049,0.3516
0.0439,0.5566,0.0024,0.0024,0.0024,0.0024,0.498,0.2246,0.0024,0.3833
0.0342,0.5127,0.0024,0.0024,0.0024,0.0024,0.2563,0.2588,0.0024,0.3418
0.0513,0.5273,0.0024,0.0024,0.0024,0.0024,0.0879,0.2124,0.0024,0.3687
0.061,0.5664,0.0024,0.0024,0.0024,0.0024,0.1221,0.2808,0.0024,0.376
0.0562,0.5542,0.0024,0.0024,0.0024,0.0024,0.1245,0.2686,0.0024,0.3882
0.0562,0.5103,0.0024,0.0024,0.0024,0.0024,0.1782,0.2808,0.0024,0.3687
0.0537,0.5615,0.0024,0.0024,0.0024,0.0024,0.1855,0.2612,0.0024,0.3711
0.0854,0.354,0.0024,0.0024,0.0073,0.0024,0.3613,0.6836,0.0024,0.3711
0.0391,0.1782,0.0024,0.0024,0.0024,0.0073,0.3052,0.5176,0.0024,0.3711
0.0317,0.3027,0.0024,0.0024,0.0049,0.0024,0.3882,0.3906,0.0024,0.3613
0.0586,0.5444,0.0024,0.0024,0.0024,0.0146,0.7446,0.2661,0.0024,0.3589
0.0464,0.6201,0.0073,0.0024,0.0024,0.0171,0.8057,0.1904,0.0024,0.3613
0.0317,0.7178,0.0073,0.0024,0.0024,0.0195,0.7593,0.1855,0.0024,0.3784
0.0562,0.6372,0.0049,0.0024,0.0024,0.0366,0.9619,0.2222,0.0024,0.3516
0.0708,0.7788,0.0171,0.0024,0.0024,0.0024,0.2417,0.4199,0.0195,0.3638
0.083,0.8203,0.0195,0.0024,0.0024,0.0049,0.2173,0.4077,0.0195,0.3589
0.0952,0.8643,0.022,0.0024,0.0049,0.0049,0.2075,0.4004,0.022,0.3589
0.0806,0.8276,0.0049,0.0024,0.0024,0.0024,0.3931,0.3003,0.0073,0.3418
0.0781,0.7861,0.0024,0.0024,0.0024,0.0024,0.4102,0.2759,0.0049,0.3516
0.0806,0.6934,0.0024,0.0024,0.0024,0.0024,0.3564,0.3442,0.0049,0.3687
0.0879,0.52,0.0024,0.0024,0.0024,0.0049,0.3052,0.3247,0.0024,0.3491
0.1001,0.7007,0.0024,0.0024,0.0049,0.0024,0.498,0.354,0.0098,0.3442
0.0903,0.7422,0.0024,0.0024,0.0024,0.0146,0.52,0.3955,0.0024,0.3491
0.0635,0.5127,0.0024,0.0024,0.0024,0.0049,0.4468,0.2148,0.0024,0.3931
0.0024,0.1343,0.0024,0.0024,0.0024,0.0024,0.2637,0.1294,0.0024,0.3711
0.0098,0.2881,0.0024,0.0024,0.0024,0.0049,0.3174,0.1294,0.0024,0.376
0.0391,0.6812,0.0024,0.0024,0.0024,0.0024,0.5322,0.1489,0.0024,0.376
0.0513,0.6128,0.0024,0.0024,0.0073,0.0073,0.4248,0.1904,0.0024,0.354
0.0439,0.5933,0.0024,0.0024,0.0049,0.0049,0.3882,0.2295,0.0024,0.3491
0.0513,0.5518,0.0024,0.0024,0.0024,0.0024,0.5493,0.249,0.0024,0.354
0.0391,0.5566,0.0024,0.0024,0.0024,0.0024,0.5786,0.1953,0.0024,0.3418
0.0513,0.3833,0.0024,0.0024,0.0024,0.0024,0.5273,0.2075,0.0024,0.3735
0.0488,0.3662,0.0024,0.0024,0.0024,0.0024,0.4736,0.2002,0.0024,0.3735
0.0366,0.3784,0.0024,0.0024,0.0024,0.0024,0.5005,0.1782,0.0024,0.354
0.0513,0.4663,0.0024,0.0024,0.0024,0.0073,0.6201,0.2051,0.0024,0.3613
0.0342,0.6665,0.0024,0.0024,0.0024,0.0024,0.5933,0.1514,0.0024,0.3589
0.0439,0.4712,0.0024,0.0024,0.0049,0.0024,0.6055,0.1929,0.0024,0.3271
0.0464,0.5737,0.0024,0.0024,0.0024,0.0024,0.5542,0.1831,0.0024,0.3198
0.0415,0.4956,0.0024,0.0024,0.0024,0.0024,0.5371,0.1953,0.0024,0.3369
0.0464,0.4907,0.0024,0.0024,0.0024,0.0024,0.5566,0.1807,0.0024,0.354
0.0415,0.5371,0.0024,0.0024,0.0024,0.0024,0.5273,0.1685,0.0024,0.3589
0.0342,0.5249,0.0024,0.0024,0.0024,0.0024,0.5127,0.1587,0.0024,0.3613
0.0317,0.3857,0.0024,0.0024,0.0024,0.0024,0.5273,0.2002,0.0024,0.3662
0.0269,0.4858,0.0024,0.0024,0.0024,0.0024,0.4663,0.2051,0.0024,0.3589
0.022,0.5469,0.0024,0.0024,0.0024,0.0024,0.5396,0.166,0.0024,0.3564
0.0537,0.7007,0.0098,0.0024,0.0024,0.0024,0.5786,0.1855,0.0024,0.376
0.061,0.7422,0.0122,0.0024,0.0049,0.0073,0.6763,0.1807,0.0024,0.3784
0.0586,0.647,0.0024,0.0024,0.0024,0.0024,0.5981,0.1709,0.0024,0.3711
0.0806,0.6177,0.0024,0.0024,0.0024,0.0024,0.52,0.3174,0.0024,0.3516
0.0562,0.6519,0.0024,0.0024,0.0024,0.0024,0.5396,0.2539,0.0024,0.3735
0.0439,0.5981,0.0024,0.0024,0.0024,0.0024,0.5518,0.2026,0.0024,0.3882
0.0513,0.6934,0.0024,0.0024,0.0024,0.0024,0.5371,0.3027,0.0024,0.3711
0.0464,0.5884,0.0024,0.0024,0.0024,0.0024,0.5884,0.2856,0.0024,0.3735
0.0488,0.3833,0.0024,0.0024,0.0024,0.0024,0.52,0.2271,0.0024,0.3882
0.0513,0.6274,0.0024,0.0024,0.0024,0.0024,0.5054,0.1855,0.0024,0.3784
0.0562,0.5566,0.0024,0.0024,0.0024,0.0024,0.4907,0.2441,0.0049,0.3613
0.0635,0.6641,0.0024,0.0024,0.0024,0.0049,0.4956,0.249,0.0024,0.3564
0.0317,0.6421,0.0024,0.0024,0.0024,0.0024,0.498,0.2026,0.0024,0.3833
0.0586,0.5444,0.0024,0.0024,0.0049,0.0024,0.4346,0.2979,0.0024,0.3735
0.0464,0.4492,0.0024,0.0024,0.0024,0.0024,0.4175,0.293,0.0024,0.3662
0.0854,0.625,0.0049,0.0024,0.0024,0.0024,0.5225,0.2759,0.0024,0.376
0.061,0.5737,0.0024,0.0024,0.0024,0.0024,0.5615,0.2295,0.0024,0.3467
0.0415,0.5884,0.0024,0.0024,0.0024,0.0024,0.4785,0.2563,0.0024,0.3638
0.0562,0.6812,0.0073,0.0024,0.0024,0.0024,0.4126,0.2197,0.0024,0.3735
0.0708,0.6226,0.0049,0.0024,0.0024,0.0024,0.3564,0.2148,0.0171,0.3613
0.0098,0.0879,0.0049,0.0024,0.0024,0.0024,0.3882,0.1538,0.0024,0.3711
0.0244,0.5078,0.0024,0.0024,0.0024,0.0024,0.3955,0.1709,0.0024,0.3857
0.0391,0.8545,0.0024,0.0024,0.0024,0.0024,0.6177,0.188,0.0024,0.3735
0.0513,0.6641,0.0024,0.0024,0.0024,0.0024,0.6592,0.1758,0.0024,0.3711
0.0488,0.6274,0.0024,0.0024,0.0024,0.0024,0.6641,0.1807,0.0024,0.3662
0.0488,0.7007,0.0024,0.0024,0.0024,0.0049,0.4712,0.1978,0.0024,0.376
0.0366,0.7495,0.0098,0.0024,0.0024,0.0049,0.7153,0.188,0.0024,0.3735
0.0439,0.7031,0.0098,0.0024,0.0024,0.0073,0.7373,0.1929,0.0024,0.376
0.0928,0.6665,0.0024,0.0024,0.0024,0.0293,1.0913,0.3149,0.0024,0.3687
0.0659,0.6128,0.0024,0.0024,0.0024,0.0073,1.0059,0.3809,0.0024,0.3687
0.0708,0.7495,0.0024,0.0024,0.0024,0.0073,0.9937,0.2197,0.0049,0.3613
0.0488,0.7959,0.0049,0.0024,0.0024,0.0024,0.8911,0.1904,0.0049,0.3784
0.0513,0.813,0.0024,0.0024,0.0024,0.0024,0.8496,0.2148,0.0024,0.3687
0.0342,0.5957,0.0098,0.0024,0.0024,0.0122,0.9595,0.1221,0.0024,0.3394
0.0513,0.6616,0.0024,0.0024,0.0024,0.0122,1.0889,0.1904,0.0024,0.3613
0.0537,0.6006,0.0024,0.0024,0.0024,0.0146,0.8936,0.2637,0.0024,0.3638
0.0586,0.3735,0.0024,0.0024,0.0024,0.0024,0.5957,0.2197,0.0024,0.3735
0.0659,0.4541,0.0024,0.0024,0.0024,0.0024,0.6274,0.2417,0.0024,0.3638
0.0684,0.4663,0.0024,0.0024,0.0024,0.0024,0.4858,0.4297,0.0024,0.3711
0.0586,0.5981,0.0024,0.0024,0.0024,0.0024,0.5347,0.2881,0.0049,0.3394
0.0635,0.6787,0.0073,0.0049,0.0024,0.0073,0.5933,0.1904,0.0098,0.3711
0.0488,0.6006,0.0024,0.0024,0.0024,0.0049,0.6274,0.2197,0.0024,0.3491
0.0391,0.5688,0.0024,0.0024,0.0024,0.0049,0.73,0.2026,0.0024,0.3516
0.0488,0.5029,0.0024,0.0024,0.0024,0.0024,0.7129,0.2002,0.0024,0.3589
0.0708,0.6543,0.0024,0.0049,0.0024,0.0024,0.4297,0.2661,0.0024,0.3394
0.061,0.5835,0.0024,0.0024,0.0024,0.0049,0.5811,0.2319,0.0024,0.3613
0.0562,0.5103,0.0024,0.0024,0.0024,0.0024,0.5859,0.2197,0.0024,0.3687
0.0635,0.6421,0.0024,0.0024,0.0024,0.0049,0.5688,0.2344,0.0024,0.3833
0.0293,0.4883,0.0024,0.0024,0.0024,0.0171,0.8472,0.2417,0.0024,0.3931
0.0537,0.3809,0.0024,0.0024,0.0024,0.0024,0.5249,0.2319,0.0024,0.3662
0.0366,0.4443,0.0024,0.0024,0.0024,0.0024,0.6665,0.2368,0.0024,0.376
0.0659,0.481,0.0024,0.0024,0.0024,0.0024,0.6567,0.2759,0.0024,0.3662
0.0366,0.481,0.0024,0.0024,0.0024,0.0024,0.4834,0.1904,0.0024,0.3516
0.0537,0.3979,0.0024,0.0024,0.0024,0.0024,0.4175,0.2222,0.0024,0.3516
0.0439,0.5225,0.0024,0.0024,0.0024,0.0024,0.4688,0.2661,0.0024,0.3467
0.0391,0.4663,0.0024,0.0024,0.0024,0.0024,0.3882,0.1636,0.0024,0.4004
0.0195,0.4565,0.0024,0.0024,0.0024,0.0024,0.4956,0.188,0.0024,0.4004
0.0269,0.437,0.0024,0.0024,0.0024,0.0024,0.4028,0.2197,0.0024,0.3857
0.0415,0.4224,0.0024,0.0024,0.0049,0.0024,0.3003,0.2148,0.0024,0.3735
0.0415,0.4248,0.0024,0.0024,0.0024,0.0024,0.3784,0.2124,0.0024,0.3735
0.0366,0.6079,0.0024,0.0024,0.0024,0.0024,0.4517,0.2319,0.0024,0.3735
0.0439,0.7422,0.0024,0.0024,0.0024,0.0024,0.3174,0.1831,0.0024,0.3687
0.0195,0.4956,0.0024,0.0024,0.0024,0.0024,0.3516,0.1367,0.0024,0.3638
0.0342,0.4688,0.0024,0.0024,0.0024,0.0024,0.3662,0.2393,0.0024,0.3735
0.061,0.4932,0.0024,0.0024,0.0049,0.0024,0.3027,0.1855,0.0024,0.3809
0.0293,0.4541,0.0024,0.0024,0.0024,0.0024,0.4395,0.1343,0.0024,0.3516
0.0195,0.5835,0.0024,0.0024,0.0024,0.0024,0.4126,0.1489,0.0024,0.3857
0.0171,0.6494,0.0024,0.0024,0.0024,0.0024,0.4321,0.1538,0.0024,0.3931
0.0195,0.6421,0.0024,0.0024,0.0024,0.0024,0.4395,0.1587,0.0024,0.3906
0.0244,0.4565,0.0024,0.0024,0.0024,0.0024,0.3857,0.1904,0.0024,0.3833
0.022,0.4443,0.0024,0.0024,0.0024,0.0024,0.4565,0.1758,0.0024,0.3711
0.0317,0.4688,0.0024,0.0024,0.0024,0.0024,0.3345,0.1758,0.0024,0.332
0.0342,0.5713,0.0049,0.0024,0.0024,0.0024,0.3247,0.1807,0.0024,0.3369
0.0464,0.6323,0.0024,0.0024,0.0024,0.0024,0.2271,0.1855,0.0024,0.354
0.0562,0.5933,0.0049,0.0024,0.0024,0.0024,0.3369,0.1929,0.0024,0.3467
0.0488,0.5908,0.0024,0.0024,0.0049,0.0024,0.4199,0.1953,0.0024,0.3857
0.0732,0.647,0.0073,0.0024,0.0024,0.0024,0.4126,0.2148,0.0024,0.3687
0.0708,0.6104,0.0049,0.0024,0.0024,0.0024,0.3882,0.2026,0.0024,0.3687
0.061,0.5518,0.0024,0.0024,0.0024,0.0024,0.3687,0.188,0.0024,0.3638
0.0415,0.4761,0.0024,0.0024,0.0024,0.0024,0.542,0.1147,0.0024,0.3418
0.0439,0.2637,0.0024,0.0024,0.0024,0.0024,0.4126,0.2124,0.0024,0.3638
0.0415,0.5884,0.0024,0.0024,0.0024,0.0024,0.5151,0.2124,0.0024,0.3662
0.0366,0.5884,0.0024,0.0024,0.0024,0.0024,0.4907,0.1636,0.0024,0.3662
0.0415,0.4858,0.0024,0.0024,0.0024,0.0049,0.625,0.1953,0.0024,0.354
0.0342,0.4102,0.0024,0.0024,0.0024,0.0024,0.5322,0.1416,0.0024,0.3882
0.0122,0.3223,0.0024,0.0024,0.0024,0.0024,0.5493,0.1831,0.0024,0.3687
0.0537,0.5908,0.0024,0.0024,0.0024,0.0024,0.5933,0.2881,0.0024,0.3516
0.0464,0.5713,0.0024,0.0024,0.0024,0.0024,0.5786,0.2881,0.0024,0.3467
0.0537,0.8179,0.0049,0.0024,0.0024,0.0024,0.1465,0.2954,0.0024,0.354
0.0879,0.6787,0.0024,0.0024,0.0024,0.0024,0.2954,0.3882,0.0049,0.354
0.0928,0.8594,0.0049,0.0024,0.0024,0.0024,0.2344,0.4419,0.0024,0.354
0.0879,0.5322,0.0024,0.0024,0.0024,0.0073,0.1465,0.3662,0.0024,0.332
0.0879,0.5469,0.0024,0.0024,0.0024,0.0073,0.1416,0.3833,0.0024,0.3296
0.0537,0.6079,0.0024,0.0024,0.0024,0.0024,0.3394,0.2515,0.0024,0.3613
0.0757,0.481,0.0024,0.0024,0.0024,0.0024,0.2515,0.3003,0.0024,0.3711
0.0854,0.5811,0.0024,0.0024,0.0073,0.0049,0.1855,0.3125,0.0049,0.3638
0.0757,0.6104,0.0024,0.0024,0.0049,0.0073,0.1587,0.3101,0.0024,0.3638
0.0708,0.437,0.0049,0.0024,0.0024,0.0024,0.1147,0.1782,0.0024,0.354
0.0562,0.4053,0.0024,0.0024,0.0024,0.0024,0.1196,0.2417,0.0024,0.3442
0.0269,0.3833,0.0024,0.0024,0.0049,0.0024,0.0879,0.2881,0.0024,0.3784
0.0244,0.3442,0.0024,0.0024,0.0024,0.0024,0.0903,0.1489,0.0024,0.3687
0.0513,0.3589,0.0049,0.0024,0.0024,0.0024,0.1025,0.1514,0.0024,0.376
0.061,0.4077,0.0049,0.0024,0.0024,0.0024,0.0977,0.1709,0.0024,0.3784
0.0757,0.7764,0.0195,0.0024,0.0024,0.0024,0.0952,0.2515,0.0024,0.3589
0.0244,0.6201,0.0024,0.0049,0.0024,0.0024,0.1172,0.1685,0.0024,0.3613
0.0586,0.6982,0.0024,0.0024,0.0024,0.0024,0.1221,0.2002,0.0024,0.3589
0.0293,0.5029,0.0024,0.0024,0.0024,0.0024,0.1514,0.1807,0.0024,0.3687
0.0293,0.686,0.0024,0.0024,0.0024,0.0024,0.4346,0.188,0.0024,0.3687
0.022,0.5762,0.0024,0.0024,0.0024,0.0024,0.3833,0.188,0.0024,0.3662
0.0439,0.6567,0.0024,0.0024,0.0024,0.0024,0.2954,0.1953,0.0024,0.354
0.0537,0.6323,0.0098,0.0024,0.0024,0.0024,0.1953,0.2148,0.0024,0.332
0.0562,0.7153,0.0024,0.0024,0.0024,0.0024,0.2954,0.2759,0.0024,0.3711
0.061,0.7739,0.0024,0.0024,0.0024,0.0024,0.1489,0.2759,0.0024,0.3784
0.0659,0.6738,0.0024,0.0024,0.0024,0.0024,0.0952,0.1831,0.0024,0.3711
0.0732,0.6445,0.0024,0.0024,0.0024,0.0024,0.1514,0.3003,0.0073,0.3857
0.0513,0.5151,0.0049,0.0024,0.0024,0.0049,0.1318,0.2563,0.0024,0.3638
0.0757,0.5054,0.0024,0.0024,0.0024,0.0024,0.1025,0.3076,0.0122,0.3564
0.0171,0.3516,0.0024,0.0024,0.0024,0.0049,0.1245,0.1563,0.0024,0.3857
0.061,0.5566,0.0049,0.0024,0.0049,0.0024,0.1025,0.2148,0.0024,0.3711
0.0415,0.6641,0.0024,0.0024,0.0024,0.0024,0.0854,0.1904,0.0024,0.3564
0.0903,0.6055,0.0024,0.0024,0.0024,0.0024,0.1221,0.2856,0.0024,0.3735
0.0952,0.6543,0.0024,0.0024,0.0024,0.0024,0.1074,0.2808,0.0024,0.376
0.0513,0.8276,0.0024,0.0024,0.0024,0.0024,0.1025,0.3369,0.0098,0.4004
0.0781,0.5469,0.0024,0.0024,0.0024,0.0024,0.1172,0.2124,0.0024,0.3955
0.083,0.625,0.0024,0.0024,0.0024,0.0024,0.1123,0.2051,0.0024,0.3931
0.0439,0.6543,0.0024,0.0024,0.0024,0.0024,0.0854,0.2808,0.0024,0.3662
0.0488,0.5249,0.0024,0.0024,0.0024,0.0049,0.0757,0.2612,0.0024,0.3662
0.0537,0.3979,0.0024,0.0024,0.0073,0.0024,0.083,0.188,0.0073,0.3613
0.0464,0.5688,0.0024,0.0024,0.0024,0.0024,0.0659,0.2563,0.0024,0.3662
0.022,0.2344,0.0024,0.0024,0.0024,0.0049,0.0586,0.1514,0.0024,0.3931
0.0195,0.3076,0.0024,0.0024,0.0024,0.0024,0.0781,0.2271,0.0024,0.3735
0.061,0.6812,0.0024,0.0024,0.0024,0.0024,0.0781,0.2002,0.0024,0.3882
0.0586,0.5981,0.0049,0.0024,0.0024,0.0024,0.0879,0.1758,0.0024,0.3784
0.0366,0.6982,0.0024,0.0024,0.0024,0.0024,0.0513,0.2026,0.0049,0.3564
0.0293,0.7056,0.0024,0.0024,0.0024,0.0024,0.0439,0.1904,0.0073,0.3589
0.0464,0.6421,0.0024,0.0024,0.0024,0.0024,0.0757,0.1904,0.0073,0.3638
0.0513,0.6177,0.0024,0.0024,0.0049,0.0024,0.0757,0.2466,0.0073,0.354
0.0269,0.6274,0.0024,0.0024,0.0024,0.0024,0.2368,0.2197,0.0024,0.3979
0.0269,0.5884,0.0024,0.0024,0.0024,0.0024,0.2295,0.1929,0.0024,0.3906
0.0586,0.7056,0.0024,0.0024,0.0024,0.0024,0.2563,0.2246,0.0024,0.376
0.0635,0.6226,0.0024,0.0024,0.0024,0.0024,0.2734,0.2417,0.0024,0.3735
0.0732,0.7153,0.0049,0.0024,0.0024,0.0024,0.3052,0.2734,0.0073,0.3882
0.0757,0.5322,0.0049,0.0024,0.0024,0.0024,0.2148,0.3638,0.0415,0.376
0.0757,0.4199,0.0024,0.0024,0.0024,0.0024,0.1636,0.4224,0.0049,0.3809
0.0757,0.7104,0.0024,0.0024,0.0024,0.0024,0.083,0.376,0.0024,0.3711
0.0854,0.7788,0.0024,0.0024,0.0024,0.0024,0.083,0.3345,0.0024,0.3467
0.0684,0.7007,0.0024,0.0024,0.0024,0.0024,0.0757,0.459,0.0024,0.3735
0.0806,0.6738,0.0024,0.0024,0.0024,0.0024,0.0854,0.4639,0.0024,0.3711
0.1025,0.5054,0.0024,0.0024,0.0024,0.0024,0.1123,0.6738,0.0049,0.3491
0.0537,0.5762,0.0024,0.0024,0.0024,0.0024,0.0708,0.4126,0.0024,0.3735
0.0659,0.6323,0.0024,0.0024,0.0024,0.0024,0.0732,0.4053,0.0024,0.376
0.0757,0.5713,0.0024,0.0024,0.0024,0.0024,0.0928,0.3491,0.0024,0.3735
0.0781,0.6812,0.0049,0.0024,0.0024,0.0024,0.0952,0.3003,0.0073,0.3662
0.0732,0.7886,0.0024,0.0024,0.0024,0.0024,0.1416,0.3662,0.0073,0.3662
0.0586,0.3174,0.0024,0.0024,0.0024,0.0024,0.1465,0.4004,0.0024,0.3784
0.0684,0.6714,0.0024,0.0024,0.0024,0.0024,0.1172,0.4004,0.0024,0.3491
0.083,0.9229,0.0049,0.0024,0.0049,0.0024,0.1172,0.4272,0.0049,0.3809
0.083,0.835,0.0024,0.0024,0.0024,0.0024,0.0781,0.2368,0.0195,0.3442
0.1416,0.8398,0.0024,0.0024,0.0024,0.0098,0.0977,0.4614,0.0098,0.376
0.0708,0.6323,0.0024,0.0024,0.0024,0.0024,0.1367,0.437,0.0024,0.3784
0.0708,0.73,0.0024,0.0024,0.0024,0.0024,0.1172,0.3711,0.0024,0.3638
0.0806,0.7935,0.0024,0.0024,0.0024,0.0024,0.1416,0.3296,0.0024,0.3467
0.0684,0.7813,0.0098,0.0024,0.0024,0.0024,0.0806,0.2832,0.0024,0.3418
0.0562,0.6592,0.0024,0.0024,0.0024,0.0024,0.1001,0.3491,0.0024,0.3394
0.0513,0.5444,0.0024,0.0024,0.0024,0.0024,0.1172,0.188,0.0146,0.3833
0.0635,0.6665,0.0024,0.0024,0.0024,0.0024,0.1025,0.2148,0.0073,0.3711
0.0684,0.6665,0.0024,0.0049,0.0024,0.0024,0.1025,0.2124,0.0024,0.3711
0.0659,0.5225,0.0024,0.0024,0.0024,0.0024,0.083,0.1929,0.0024,0.3662
0.0952,0.5469,0.0024,0.0024,0.0024,0.0024,0.0708,0.2319,0.0024,0.3662
0.0879,0.6909,0.0024,0.0024,0.0024,0.0024,0.0732,0.2002,0.0024,0.3662
0.0854,0.7495,0.0024,0.0024,0.0024,0.0024,0.0732,0.2344,0.0024,0.3735
0.0928,0.9839,0.0024,0.0024,0.0024,0.0024,0.0781,0.2856,0.0024,0.3784
0.0684,0.8203,0.0024,0.0024,0.0024,0.0024,0.0806,0.2588,0.0024,0.3687
0.1001,0.8618,0.0073,0.0024,0.0024,0.0024,0.0806,0.3833,0.0146,0.3784
0.0879,0.6543,0.0024,0.0024,0.0024,0.0024,0.2515,0.2002,0.0293,0.3564
0.0757,0.6226,0.0049,0.0024,0.0024,0.0024,0.2124,0.2197,0.0024,0.3369
0.061,0.686,0.0024,0.0024,0.0024,0.0024,0.0903,0.188,0.0024,0.354
0.0537,0.6567,0.0024,0.0024,0.0024,0.0024,0.0928,0.1636,0.0024,0.3711
0.0562,0.5566,0.0024,0.0049,0.0024,0.0024,0.0903,0.1953,0.0024,0.3442
0.0562,0.6445,0.0024,0.0024,0.0024,0.0024,0.1025,0.1953,0.0049,0.3491
0.0659,0.6836,0.0024,0.0024,0.0024,0.0024,0.1196,0.1929,0.0171,0.3564
0.0586,0.7617,0.0024,0.0024,0.0024,0.0024,0.1001,0.1855,0.0024,0.3833
0.0513,0.6201,0.0024,0.0024,0.0024,0.0024,0.1074,0.2197,0.0024,0.3735
0.0732,0.7153,0.0024,0.0024,0.0024,0.0024,0.1147,0.1855,0.0024,0.3613
0.0464,0.3662,0.0024,0.0024,0.0049,0.0024,0.1099,0.1855,0.0024,0.3711
0.0366,0.5542,0.0024,0.0024,0.0049,0.0024,0.1099,0.1978,0.0024,0.3589
0.0562,0.5737,0.0024,0.0024,0.0024,0.0024,0.1196,0.2124,0.0024,0.3442
0.0537,0.7373,0.0024,0.0024,0.0024,0.0049,0.1563,0.1636,0.0073,0.3735
0.0708,0.7837,0.0049,0.0024,0.0024,0.0024,0.1514,0.1758,0.0098,0.3833
0.0708,0.5908,0.0024,0.0024,0.0024,0.0024,0.1392,0.1563,0.0024,0.3662
0.0708,0.5713,0.0024,0.0024,0.0024,0.0024,0.1318,0.1489,0.0024,0.3613
0.0537,0.5518,0.0024,0.0024,0.0024,0.0024,0.1367,0.1709,0.0073,0.3687
0.0659,0.7715,0.0049,0.0024,0.0049,0.0024,0.1685,0.249,0.0244,0.3906
0.0732,0.6885,0.0024,0.0024,0.0024,0.0024,0.127,0.2051,0.0024,0.3687
0.0684,0.7056,0.0049,0.0024,0.0024,0.0024,0.2319,0.2173,0.0146,0.3735
0.0659,0.7373,0.0049,0.0024,0.0024,0.0024,0.2686,0.2026,0.0122,0.3809
0.0659,0.8301,0.0024,0.0024,0.0024,0.0024,0.2417,0.1855,0.0073,0.3931
0.1001,0.918,0.0024,0.0024,0.0024,0.0024,0.1758,0.2832,0.0146,0.3638
0.0952,0.8374,0.0024,0.0024,0.0024,0.0024,0.1904,0.3418,0.0049,0.3784
0.1172,0.8643,0.0024,0.0024,0.0024,0.0024,0.21,0.3687,0.0049,0.3931
0.1196,0.7056,0.0073,0.0024,0.0024,0.0024,0.2075,0.4077,0.0049,0.3418
0.0903,0.7495,0.0073,0.0024,0.0024,0.0024,0.2295,0.3809,0.0024,0.3809
0.1099,0.6738,0.0024,0.0024,0.0024,0.0049,0.2148,0.3809,0.0024,0.3613
0.0757,0.6909,0.0024,0.0024,0.0024,0.0073,0.1587,0.3296,0.0049,0.3638
0.0928,0.7275,0.0024,0.0024,0.0024,0.0024,0.1538,0.3735,0.0049,0.3638
0.0757,0.5005,0.0024,0.0024,0.0024,0.0024,0.0854,0.2783,0.0024,0.3735
0.0757,0.5103,0.0024,0.0024,0.0024,0.0024,0.0928,0.3198,0.0024,0.3735
0.0928,0.6201,0.0024,0.0024,0.0024,0.0024,0.1147,0.3101,0.0024,0.376
0.1221,0.6787,0.0024,0.0024,0.0024,0.0024,0.1123,0.3296,0.0024,0.332
0.1147,0.6958,0.0024,0.0024,0.0024,0.0024,0.1099,0.3076,0.0024,0.3223
0.0757,0.6763,0.0049,0.0024,0.0024,0.0024,0.0977,0.3101,0.0024,0.3076
0.0781,0.6616,0.0024,0.0024,0.0024,0.0024,0.1099,0.2637,0.0024,0.2856
0.0391,0.6616,0.0024,0.0024,0.0024,0.0024,0.1123,0.3003,0.0024,0.3418
0.0537,0.7617,0.0024,0.0024,0.0024,0.0024,0.1294,0.3076,0.0073,0.3442
0.0684,0.6567,0.0024,0.0024,0.0024,0.0024,0.127,0.3198,0.0024,0.4102
0.0562,0.7373,0.0073,0.0024,0.0024,0.0024,0.1147,0.2954,0.022,0.3638
0.0659,0.5957,0.0049,0.0024,0.0024,0.0024,0.0952,0.2954,0.0049,0.3711
0.0684,0.7397,0.0024,0.0024,0.0024,0.0024,0.1074,0.2832,0.0073,0.376
0.0879,0.8252,0.0024,0.0024,0.0024,0.0024,0.1196,0.3369,0.0122,0.3882
0.0757,0.7227,0.0024,0.0024,0.0024,0.0024,0.127,0.3003,0.0098,0.3979
0.0952,0.7983,0.0049,0.0024,0.0024,0.0024,0.1099,0.415,0.0073,0.3687
0.061,0.6396,0.0049,0.0024,0.0024,0.0024,0.0757,0.2319,0.0024,0.3613
0.0586,0.7397,0.0049,0.0024,0.0024,0.0024,0.1123,0.2734,0.0073,0.3516
0.0732,0.8154,0.0049,0.0024,0.0024,0.0024,0.0903,0.3516,0.0024,0.3809
0.0952,0.7007,0.0024,0.0024,0.0024,0.0024,0.0439,0.4004,0.0171,0.3662
0.105,0.6836,0.0049,0.0024,0.0024,0.0024,0.0562,0.3394,0.0146,0.3613
0.0757,0.6299,0.0024,0.0024,0.0024,0.0024,0.083,0.3711,0.0024,0.3442
0.0708,0.5859,0.0024,0.0024,0.0024,0.0049,0.0757,0.376,0.0024,0.3882
0.0757,0.6226,0.0024,0.0024,0.0024,0.0024,0.1025,0.2661,0.0049,0.3613
0.0781,0.4932,0.0024,0.0024,0.0049,0.0024,0.0977,0.3687,0.0024,0.3589
0.0635,0.5591,0.0024,0.0024,0.0024,0.0024,0.1001,0.3638,0.0024,0.3491
0.0537,0.5444,0.0024,0.0024,0.0024,0.0024,0.0977,0.3345,0.0024,0.3442
0.0928,0.73,0.0122,0.0024,0.0024,0.0024,0.1001,0.3101,0.0024,0.3394
0.0513,0.6738,0.0024,0.0024,0.0024,0.0024,0.083,0.354,0.0049,0.3662
0.0513,0.6885,0.0024,0.0024,0.0024,0.0024,0.083,0.3564,0.0098,0.376
0.0757,0.6616,0.0024,0.0024,0.0024,0.0024,0.0781,0.3345,0.0171,0.3711
0.0806,0.5054,0.0024,0.0024,0.0024,0.0024,0.0854,0.3369,0.0024,0.3711
0.0928,0.6372,0.0024,0.0024,0.0024,0.0024,0.0806,0.376,0.0024,0.3613
0.0757,0.708,0.0024,0.0024,0.0024,0.0024,0.0781,0.3735,0.0024,0.3491
0.0708,0.6812,0.0024,0.0024,0.0024,0.0024,0.0854,0.3979,0.0024,0.3491
0.0684,0.6812,0.0024,0.0024,0.0024,0.0024,0.1123,0.3662,0.0024,0.376
0.0757,0.6641,0.0024,0.0024,0.0024,0.0024,0.1123,0.332,0.0024,0.3613
0.1001,0.6665,0.0024,0.0024,0.0049,0.0024,0.1123,0.3271,0.0024,0.3784
0.083,0.5469,0.0024,0.0024,0.0024,0.0024,0.1196,0.2441,0.0024,0.3687
0.0488,0.4517,0.0024,0.0024,0.0024,0.0024,0.0854,0.3003,0.0024,0.3784
0.0903,0.9155,0.0146,0.0024,0.0024,0.0024,0.0806,0.4077,0.0049,0.3833
0.105,0.8008,0.0049,0.0024,0.0024,0.0024,0.105,0.4224,0.0024,0.354
0.0854,0.6445,0.0024,0.0024,0.0024,0.0024,0.1294,0.3784,0.0024,0.3589
0.1025,0.7153,0.0024,0.0024,0.0024,0.0024,0.1196,0.4248,0.0073,0.3369
0.083,0.686,0.0024,0.0024,0.0024,0.0024,0.1123,0.3052,0.0024,0.3516
0.0879,0.7129,0.0024,0.0024,0.0024,0.0024,0.1001,0.3076,0.0024,0.3564
0.0928,0.8691,0.0122,0.0024,0.0024,0.0024,0.0977,0.2954,0.0049,0.3589
0.0659,0.7886,0.0024,0.0024,0.0024,0.0024,0.105,0.2344,0.0024,0.3589
0.0781,0.7129,0.0024,0.0024,0.0073,0.0073,0.0977,0.2441,0.0024,0.3564
0.0781,0.6055,0.0024,0.0024,0.0024,0.0024,0.1294,0.3467,0.0024,0.3809
0.0806,0.769,0.0049,0.0024,0.0024,0.0024,0.1636,0.3564,0.0024,0.3931
0.0757,0.8813,0.0024,0.0024,0.0024,0.0024,0.2051,0.2148,0.0171,0.376
0.0537,0.6104,0.0024,0.0024,0.0024,0.0024,0.1709,0.2368,0.0024,0.3979
0.0684,0.6274,0.0073,0.0024,0.0024,0.0024,0.3345,0.293,0.0024,0.3784
0.0708,0.6763,0.0073,0.0024,0.0049,0.0122,0.5762,0.3687,0.0024,0.3979
0.1196,0.7666,0.0049,0.0024,0.0024,0.0122,0.1782,0.3076,0.0195,0.3784
0.0806,0.8276,0.0024,0.0024,0.0024,0.0146,0.166,0.249,0.0049,0.3516
0.0781,0.8887,0.0024,0.0024,0.0024,0.0146,0.2808,0.3198,0.0098,0.3784
0.0708,0.8179,0.0024,0.0024,0.0024,0.0098,0.2905,0.2686,0.0024,0.3882
0.1318,0.8765,0.0098,0.0024,0.0049,0.0415,0.7544,0.3589,0.0293,0.3662
0.144,0.8887,0.0098,0.0024,0.0122,0.0854,1.0132,0.3369,0.022,0.3589
0.1489,1.0059,0.0098,0.0024,0.0171,0.0879,0.979,0.4126,0.0317,0.3638
0.1318,1.0376,0.0049,0.0024,0.0024,0.0537,1.1426,0.3198,0.0049,0.3857
0.1123,0.8667,0.0049,0.0024,0.0024,0.0659,1.2891,0.3198,0.0195,0.3857
0.0903,0.8081,0.0073,0.0024,0.0024,0.0708,1.106,0.2832,0.0049,0.3418
0.0879,0.7178,0.0049,0.0024,0.0024,0.0635,1.0742,0.2832,0.0024,0.3491
0.0317,0.3149,0.0024,0.0024,0.0024,0.0171,0.5786,0.2417,0.0024,0.3979
0.0366,0.3979,0.0024,0.0024,0.0024,0.0024,0.3247,0.1782,0.0024,0.3687
0.0269,0.5396,0.0024,0.0024,0.0024,0.0049,0.4858,0.1685,0.0024,0.3882
0.0269,0.5615,0.0024,0.0024,0.0024,0.0049,0.4736,0.166,0.0024,0.3931
0.022,0.5322,0.0024,0.0024,0.0024,0.0049,0.3638,0.1709,0.0024,0.4102
0.0098,0.5396,0.0024,0.0024,0.0024,0.0049,0.2588,0.1489,0.0024,0.3955
0.0098,0.3369,0.0024,0.0024,0.0024,0.0024,0.1343,0.1758,0.0024,0.3711
0.0244,0.4712,0.0024,0.0024,0.0024,0.0098,0.144,0.2124,0.0024,0.376
0.0244,0.5542,0.0024,0.0024,0.0024,0.0024,0.1343,0.1538,0.0024,0.3833
0.0342,0.6128,0.0024,0.0024,0.0024,0.0024,0.3052,0.1367,0.0024,0.3857
0.0415,0.7544,0.0024,0.0024,0.0024,0.0024,0.3296,0.1831,0.0024,0.3662
0.0488,0.7471,0.0122,0.0024,0.0024,0.0024,0.4785,0.1685,0.0049,0.3638
0.022,0.752,0.0073,0.0024,0.0049,0.0024,0.4272,0.1367,0.0024,0.3735
0.0391,0.9131,0.0024,0.0024,0.0073,0.0171,0.9985,0.2148,0.0049,0.376
0.0464,0.7715,0.0024,0.0024,0.0024,0.0073,0.8252,0.2271,0.0024,0.3809
0.0684,0.7153,0.0024,0.0024,0.0049,0.0122,0.7886,0.2417,0.0024,0.3687
0.0488,0.7202,0.0024,0.0024,0.0024,0.0073,0.9717,0.249,0.0049,0.3638
0.0586,0.7446,0.0024,0.0024,0.0024,0.0024,0.8618,0.2637,0.0049,0.3564
0.0635,0.7837,0.0024,0.0024,0.0024,0.0024,0.791,0.2246,0.0024,0.3613
0.0781,0.8105,0.0024,0.0024,0.0024,0.0024,0.8081,0.2832,0.0049,0.3955
0.061,0.6128,0.0024,0.0024,0.0024,0.0024,0.3101,0.2417,0.0024,0.3833
0.0562,0.2881,0.0024,0.0024,0.0024,0.0073,0.1685,0.2271,0.0024,0.3687
0.0342,0.6738,0.0098,0.0024,0.0024,0.0049,0.1172,0.1465,0.0049,0.3882
0.0415,0.813,0.0122,0.0049,0.0024,0.0073,0.1147,0.144,0.0098,0.3809
0.0317,0.7056,0.0024,0.0024,0.0024,0.0024,0.1221,0.1416,0.0024,0.3833
0.0342,0.5957,0.0049,0.0024,0.0024,0.0024,0.0635,0.1807,0.0024,0.3564
0.0342,0.4468,0.0024,0.0024,0.0024,0.0049,0.105,0.1978,0.0024,0.3784
0.0146,0.3418,0.0024,0.0024,0.0024,0.0024,0.1025,0.1904,0.0024,0.3809
0.0049,0.2832,0.0024,0.0024,0.0024,0.0024,0.0928,0.1758,0.0024,0.3735
0.0049,0.2686,0.0024,0.0024,0.0024,0.0024,0.0952,0.1855,0.0024,0.3711
0.0195,0.4028,0.0024,0.0024,0.0024,0.0024,0.0659,0.1538,0.0024,0.3687
0.0098,0.3979,0.0024,0.0024,0.0024,0.0024,0.0732,0.127,0.0024,0.3613
0.0146,0.3809,0.0024,0.0024,0.0024,0.0024,0.0781,0.127,0.0024,0.3638
0.0049,0.2808,0.0024,0.0024,0.0024,0.0024,0.0659,0.1245,0.0024,0.3711
0.0073,0.3247,0.0024,0.0024,0.0024,0.0024,0.0806,0.1489,0.0024,0.3638
0.0049,0.2661,0.0024,0.0024,0.0024,0.0024,0.0928,0.1685,0.0024,0.3687
0.0195,0.3442,0.0024,0.0024,0.0049,0.0024,0.0684,0.1416,0.0024,0.3687
0.0073,0.2222,0.0024,0.0024,0.0024,0.0024,0.0464,0.1221,0.0024,0.3931
0.0244,0.3296,0.0024,0.0024,0.0024,0.0024,0.0854,0.1733,0.0024,0.3784
0.022,0.2905,0.0024,0.0024,0.0024,0.0024,0.083,0.166,0.0024,0.3784
0.0269,0.4639,0.0024,0.0024,0.0049,0.0024,0.083,0.166,0.0024,0.4175
0.0293,0.4688,0.0024,0.0024,0.0049,0.0024,0.1001,0.1685,0.0024,0.4102
0.0171,0.3564,0.0024,0.0024,0.0024,0.0024,0.0659,0.1904,0.0024,0.3687
0.0244,0.3418,0.0024,0.0024,0.0024,0.0024,0.0879,0.166,0.0024,0.376
0.0122,0.3223,0.0024,0.0024,0.0024,0.0024,0.0635,0.1611,0.0024,0.3613
0.0122,0.4443,0.0024,0.0024,0.0024,0.0024,0.0635,0.1563,0.0024,0.3955
0.0024,0.0903,0.0024,0.0024,0.0024,0.0024,0.0879,0.1587,0.0024,0.3931
0.0049,0.1611,0.0024,0.0024,0.0024,0.0024,0.0537,0.1392,0.0024,0.3979
0.0073,0.2319,0.0024,0.0049,0.0024,0.0024,0.061,0.1709,0.0024,0.4028
0.0171,0.3027,0.0024,0.0024,0.0024,0.0024,0.0684,0.1831,0.0024,0.3784
0.0024,0.2734,0.0024,0.0049,0.0024,0.0024,0.0488,0.1245,0.0024,0.376
0.0342,0.2881,0.0049,0.0024,0.0024,0.0024,0.0952,0.2295,0.0024,0.3564
0.0024,0.293,0.0024,0.0024,0.0024,0.0024,0.061,0.1538,0.0024,0.3442
0.0049,0.3638,0.0024,0.0024,0.0024,0.0024,0.0659,0.1465,0.0024,0.3516
0.0049,0.2637,0.0024,0.0024,0.0024,0.0024,0.0586,0.1587,0.0024,0.3491
0.0244,0.4199,0.0024,0.0024,0.0024,0.0024,0.0952,0.127,0.0024,0.3564
0.022,0.3101,0.0024,0.0024,0.0024,0.0024,0.083,0.1367,0.0024,0.3564
0.0098,0.2612,0.0024,0.0024,0.0024,0.0024,0.0928,0.1074,0.0024,0.3516
0.0024,0.3613,0.0024,0.0024,0.0024,0.0024,0.0977,0.0977,0.0024,0.354
0.0024,0.4028,0.0024,0.0024,0.0024,0.0024,0.0952,0.1343,0.0024,0.3784
0.0098,0.2783,0.0024,0.0024,0.0024,0.0024,0.0854,0.1636,0.0024,0.376
0.0049,0.2466,0.0024,0.0024,0.0024,0.0024,0.0806,0.1514,0.0024,0.3735
0.0073,0.2979,0.0024,0.0049,0.0024,0.0024,0.0879,0.1465,0.0024,0.3638
0.0024,0.2417,0.0024,0.0024,0.0024,0.0024,0.0854,0.1563,0.0024,0.3784
0.0024,0.2588,0.0024,0.0024,0.0024,0.0024,0.0781,0.1514,0.0024,0.3784
0.0122,0.3784,0.0024,0.0024,0.0024,0.0024,0.0586,0.1294,0.0024,0.3784
0.0171,0.2637,0.0024,0.0024,0.0024,0.0024,0.0586,0.1416,0.0024,0.3613
0.0073,0.3052,0.0024,0.0024,0.0024,0.0024,0.0708,0.1392,0.0024,0.376
0.0122,0.4663,0.0024,0.0024,0.0024,0.0024,0.0732,0.1709,0.0024,0.3638
0.0269,0.3467,0.0049,0.0024,0.0024,0.0024,0.0977,0.1709,0.0024,0.3735
0.0073,0.4663,0.0024,0.0024,0.0024,0.0024,0.0562,0.1294,0.0024,0.3833
0.0073,0.3442,0.0024,0.0024,0.0049,0.0024,0.1001,0.1709,0.0024,0.354
0.0146,0.3394,0.0024,0.0024,0.0024,0.0024,0.0415,0.105,0.0024,0.354
0.0146,0.3979,0.0024,0.0024,0.0024,0.0024,0.0781,0.1758,0.0024,0.3784
0.0195,0.3833,0.0024,0.0024,0.0049,0.0024,0.0854,0.1831,0.0024,0.3735
0.0195,0.2441,0.0024,0.0024,0.0024,0.0024,0.0952,0.1758,0.0024,0.3491
0.0366,0.6226,0.0024,0.0024,0.0024,0.0024,0.0806,0.1465,0.0024,0.354
0.0464,0.647,0.0024,0.0024,0.0024,0.0024,0.0781,0.1563,0.0024,0.3467
0.0269,0.3638,0.0024,0.0024,0.0024,0.0024,0.0708,0.1807,0.0024,0.3491
0.0366,0.6665,0.0024,0.0024,0.0024,0.0024,0.0757,0.1758,0.0098,0.3491
0.0122,0.1685,0.0024,0.0024,0.0024,0.0024,0.0464,0.1416,0.0024,0.3589
0.0415,0.4883,0.0024,0.0024,0.0024,0.0024,0.083,0.1245,0.0024,0.3613
0.0415,0.4932,0.0024,0.0024,0.0024,0.0024,0.1001,0.1221,0.0024,0.354
0.0586,0.3809,0.0024,0.0024,0.0024,0.0024,0.1123,0.249,0.0024,0.3711
0.0439,0.332,0.0024,0.0024,0.0024,0.0024,0.1221,0.2148,0.0024,0.3833
0.0391,0.4663,0.0049,0.0024,0.0024,0.0024,0.083,0.2148,0.0024,0.3735
0.0415,0.4663,0.0024,0.0024,0.0024,0.0024,0.0952,0.1978,0.0024,0.3687
0.0269,0.647,0.0049,0.0024,0.0024,0.0024,0.083,0.1611,0.0024,0.3833
0.0244,0.6201,0.0024,0.0024,0.0024,0.0024,0.0854,0.1855,0.0024,0.3833
0.022,0.6323,0.0024,0.0024,0.0049,0.0024,0.0732,0.2563,0.0024,0.3735
0.061,0.4858,0.0024,0.0024,0.0024,0.0024,0.0757,0.2612,0.0024,0.3711
0.0415,0.3979,0.0024,0.0024,0.0024,0.0024,0.0684,0.249,0.0024,0.3613
0.0879,0.4663,0.0024,0.0024,0.0024,0.0024,0.1538,0.5273,0.0024,0.3711
0.0879,0.6274,0.0049,0.0024,0.0024,0.0024,0.1538,0.6396,0.0024,0.3711
0.083,0.4712,0.0024,0.0024,0.0024,0.0024,0.1196,0.4956,0.0024,0.3662
0.0513,0.3125,0.0024,0.0024,0.0024,0.0024,0.1074,0.3589,0.0024,0.3418
0.0488,0.5127,0.0049,0.0024,0.0024,0.0024,0.083,0.2686,0.0024,0.3564
0.0391,0.4272,0.0024,0.0024,0.0024,0.0024,0.0879,0.2686,0.0024,0.3809
0.0513,0.4907,0.0024,0.0024,0.0024,0.0024,0.061,0.2515,0.0024,0.3491
0.0464,0.6836,0.0024,0.0024,0.0024,0.0024,0.105,0.2295,0.0024,0.3418
0.0391,0.5493,0.0024,0.0024,0.0049,0.0024,0.0464,0.2051,0.0024,0.3564
0.0439,0.4077,0.0024,0.0024,0.0024,0.0024,0.0708,0.2075,0.0024,0.3638
0.0586,0.5127,0.0049,0.0024,0.0024,0.0024,0.061,0.1782,0.0024,0.3662
0.0415,0.6909,0.0024,0.0024,0.0024,0.0024,0.061,0.1953,0.0024,0.3589
0.022,0.4272,0.0024,0.0024,0.0024,0.0024,0.0488,0.1538,0.0024,0.3442
0.0269,0.6006,0.0024,0.0024,0.0024,0.0024,0.0562,0.144,0.0024,0.3491
0.0415,0.5762,0.0049,0.0024,0.0024,0.0024,0.0537,0.1929,0.0024,0.3662
0.0293,0.6567,0.0024,0.0024,0.0024,0.0024,0.0684,0.1074,0.0024,0.3589
0.0317,0.6445,0.0024,0.0024,0.0024,0.0024,0.0708,0.1538,0.0024,0.3589
0.0391,0.5908,0.0049,0.0024,0.0024,0.0024,0.0562,0.1978,0.0024,0.3735
0.0293,0.4858,0.0024,0.0024,0.0024,0.0024,0.0586,0.2832,0.0024,0.3564
0.0342,0.5493,0.0049,0.0024,0.0024,0.0024,0.0732,0.249,0.0024,0.3638
0.0757,0.8057,0.0049,0.0024,0.0024,0.0024,0.0781,0.2271,0.0049,0.3784
0.0562,0.5151,0.0024,0.0024,0.0024,0.0024,0.0781,0.2344,0.0024,0.3735
0.0391,0.5542,0.0024,0.0024,0.0024,0.0024,0.0757,0.2075,0.0024,0.3955
0.0195,0.4077,0.0024,0.0024,0.0024,0.0024,0.061,0.2075,0.0024,0.3442
0.0439,0.4663,0.0024,0.0024,0.0024,0.0024,0.0757,0.1953,0.0024,0.3735
0.0366,0.481,0.0024,0.0024,0.0024,0.0024,0.0928,0.21,0.0049,0.354
0.0415,0.6055,0.0024,0.0024,0.0024,0.0024,0.0537,0.2026,0.0024,0.3882
0.0391,0.4688,0.0024,0.0024,0.0024,0.0024,0.0659,0.2026,0.0024,0.3857
0.0366,0.5054,0.0024,0.0024,0.0024,0.0024,0.0684,0.2002,0.0024,0.3589
0.0269,0.52,0.0024,0.0024,0.0024,0.0024,0.0732,0.1709,0.0024,0.354
0.0391,0.5078,0.0024,0.0024,0.0024,0.0024,0.0635,0.2344,0.0024,0.354
0.022,0.4541,0.0024,0.0024,0.0024,0.0024,0.0562,0.1904,0.0024,0.354
0.0439,0.5176,0.0024,0.0024,0.0024,0.0024,0.0586,0.2417,0.0024,0.3491
0.0586,0.4468,0.0024,0.0024,0.0024,0.0024,0.0586,0.249,0.0024,0.3467
0.0464,0.4712,0.0024,0.0024,0.0024,0.0024,0.0415,0.2368,0.0024,0.3687
0.0269,0.6177,0.0024,0.0024,0.0024,0.0024,0.0391,0.2295,0.0024,0.3613
0.0464,0.6494,0.0024,0.0024,0.0024,0.0024,0.061,0.2124,0.0024,0.354
0.0342,0.3149,0.0024,0.0024,0.0024,0.0024,0.0659,0.2808,0.0024,0.3711
0.0293,0.3516,0.0024,0.0024,0.0024,0.0024,0.0757,0.2686,0.0024,0.3784
0.0293,0.5103,0.0049,0.0024,0.0024,0.0024,0.0757,0.2466,0.0024,0.3784
0.0317,0.5127,0.0024,0.0024,0.0024,0.0024,0.1025,0.2368,0.0024,0.3735
0.0293,0.4663,0.0024,0.0024,0.0024,0.0024,0.0928,0.2368,0.0024,0.3662
0.0562,0.6226,0.0024,0.0024,0.0024,0.0024,0.0708,0.2368,0.0024,0.354
0.0488,0.7056,0.0024,0.0024,0.0024,0.0024,0.0513,0.2051,0.0024,0.3882
0.0464,0.6128,0.0024,0.0024,0.0049,0.0024,0.0684,0.1953,0.0024,0.3784
0.0366,0.5811,0.0024,0.0024,0.0024,0.0024,0.083,0.1904,0.0024,0.3418
0.0464,0.9131,0.0024,0.0024,0.0024,0.0024,0.0757,0.2856,0.0024,0.3687
0.0488,0.8813,0.0024,0.0024,0.0024,0.0024,0.0684,0.2808,0.0024,0.3662
0.0708,0.8765,0.0049,0.0024,0.0024,0.0024,0.0635,0.271,0.0024,0.3687
0.022,0.4077,0.0024,0.0024,0.0024,0.0024,0.2686,0.166,0.0024,0.3613
0.0293,0.3516,0.0024,0.0024,0.0024,0.0024,0.1147,0.1611,0.0024,0.3735
0.0537,0.4053,0.0024,0.0024,0.0024,0.0024,0.0879,0.2148,0.0024,0.3442
0.0415,0.3662,0.0024,0.0024,0.0024,0.0024,0.083,0.1855,0.0024,0.3662
0.0464,0.3271,0.0049,0.0024,0.0024,0.0024,0.0903,0.1733,0.0024,0.3662
0.0342,0.4492,0.0024,0.0024,0.0024,0.0024,0.1074,0.1782,0.0024,0.3711
0.0269,0.3809,0.0024,0.0024,0.0024,0.0024,0.0757,0.1538,0.0024,0.4028
0.0146,0.3882,0.0244,0.0024,0.0024,0.0024,0.0781,0.1587,0.0024,0.3711
0.0122,0.5176,0.0244,0.0024,0.0024,0.0024,0.0732,0.1587,0.0024,0.3662
0.0171,0.4419,0.0024,0.0024,0.0024,0.0024,0.0854,0.1489,0.0024,0.3662
0.0269,0.6104,0.0293,0.0024,0.0024,0.0024,0.0903,0.1904,0.0024,0.3687
0.0244,0.459,0.0073,0.0024,0.0024,0.0024,0.0977,0.1685,0.0024,0.376
0.0293,0.4199,0.0024,0.0024,0.0024,0.0024,0.0732,0.1782,0.0024,0.3857
0.0244,0.5933,0.0024,0.0024,0.0024,0.0024,0.0708,0.2173,0.0024,0.3955
0.0073,0.5054,0.0049,0.0024,0.0049,0.0024,0.0488,0.1685,0.0024,0.3882
0.0317,0.4663,0.0049,0.0024,0.0024,0.0024,0.0659,0.1733,0.0024,0.3711
0.0366,0.4785,0.0024,0.0024,0.0024,0.0024,0.0659,0.166,0.0098,0.376
0.0366,0.4761,0.0024,0.0049,0.0024,0.0024,0.0488,0.1416,0.0098,0.3711
0.0317,0.4663,0.0024,0.0024,0.0024,0.0024,0.0586,0.1245,0.0024,0.3662
0.0293,0.4614,0.0024,0.0024,0.0024,0.0024,0.0635,0.1514,0.0024,0.3711
0.0317,0.5396,0.0122,0.0024,0.0024,0.0024,0.1123,0.1611,0.0024,0.3638
0.0708,0.8789,0.0146,0.0024,0.0024,0.0024,0.0879,0.1538,0.0073,0.415
0.0488,0.5688,0.0049,0.0024,0.0024,0.0024,0.083,0.166,0.0024,0.3662
0.0513,0.7373,0.0098,0.0024,0.0024,0.0024,0.0732,0.1245,0.0024,0.3638
0.0586,0.7007,0.0146,0.0024,0.0024,0.0024,0.0806,0.1416,0.0024,0.3711
0.0586,0.7617,0.0024,0.0024,0.0024,0.0024,0.0806,0.2515,0.0024,0.3906
0.0342,0.6909,0.0024,0.0024,0.0024,0.0024,0.0879,0.1953,0.0024,0.3687
0.0781,0.7861,0.0024,0.0024,0.0024,0.0024,0.0952,0.2441,0.0049,0.3687
0.0293,0.2661,0.0024,0.0024,0.0024,0.0024,0.1001,0.2051,0.0024,0.3931
0.0586,0.5688,0.0024,0.0024,0.0024,0.0024,0.0854,0.21,0.0024,0.3711
0.0391,0.4858,0.0024,0.0024,0.0024,0.0024,0.0903,0.1563,0.0024,0.3687
0.0439,0.5615,0.0024,0.0024,0.0024,0.0024,0.083,0.1855,0.0024,0.3687
0.0562,0.7178,0.0024,0.0024,0.0024,0.0024,0.0513,0.1489,0.0146,0.3833
0.0269,0.6812,0.0073,0.0024,0.0024,0.0024,0.0537,0.1343,0.0024,0.3687
0.0391,0.6348,0.0098,0.0024,0.0024,0.0024,0.0586,0.1538,0.0024,0.3735
0.0342,0.4199,0.0024,0.0024,0.0024,0.0024,0.0635,0.1343,0.0024,0.3589
0.0366,0.6909,0.0024,0.0024,0.0024,0.0024,0.0317,0.1318,0.0024,0.3857
0.0293,0.5542,0.0024,0.0024,0.0024,0.0024,0.0708,0.1245,0.0024,0.3687
0.0244,0.5933,0.0024,0.0024,0.0024,0.0024,0.0879,0.1245,0.0024,0.3613
0.0415,0.7837,0.0024,0.0024,0.0024,0.0024,0.0684,0.1782,0.0024,0.3711
0.0391,0.6567,0.0024,0.0024,0.0024,0.0024,0.0293,0.0977,0.0024,0.3809
0.0366,0.6494,0.0024,0.0024,0.0024,0.0024,0.0757,0.1221,0.0024,0.3491
0.0317,0.7251,0.0049,0.0024,0.0024,0.0024,0.0708,0.1196,0.0024,0.3589
0.0146,0.6323,0.0024,0.0024,0.0024,0.0024,0.0708,0.1245,0.0024,0.3833
0.0122,0.6226,0.0024,0.0024,0.0024,0.0024,0.0659,0.1172,0.0024,0.3882
0.0269,0.6055,0.0024,0.0024,0.0024,0.0024,0.0757,0.1538,0.0073,0.3516
0.0439,0.4834,0.0049,0.0024,0.0024,0.0024,0.0903,0.1563,0.0024,0.3735
0.0366,0.8447,0.0024,0.0024,0.0024,0.0024,0.0659,0.166,0.0024,0.3564
0.0342,0.8252,0.0024,0.0024,0.0024,0.0024,0.0732,0.1587,0.0024,0.415
0.0366,0.7178,0.0024,0.0024,0.0024,0.0024,0.0439,0.1514,0.0024,0.3809
0.0488,0.9009,0.0049,0.0024,0.0024,0.0024,0.0806,0.1758,0.0024,0.3955
0.0342,0.6982,0.0024,0.0024,0.0024,0.0024,0.0732,0.1758,0.0024,0.3735
0.0513,0.6909,0.0024,0.0024,0.0024,0.0024,0.0708,0.1733,0.0024,0.3711
0.0415,0.708,0.0024,0.0024,0.0024,0.0024,0.0879,0.1538,0.0024,0.3687
0.0635,0.957,0.0024,0.0024,0.0024,0.0024,0.0562,0.1465,0.0122,0.3467
0.0366,0.542,0.0024,0.0024,0.0024,0.0024,0.0854,0.1587,0.0024,0.3711
0.0366,0.8984,0.0073,0.0049,0.0024,0.0024,0.0586,0.1904,0.0049,0.3418
0.0293,0.4297,0.0098,0.0024,0.0024,0.0024,0.083,0.2539,0.0024,0.3735
0.0269,0.459,0.0146,0.0024,0.0024,0.0024,0.0757,0.2393,0.0024,0.3735
0.0366,0.4297,0.0024,0.0024,0.0024,0.0024,0.0732,0.2466,0.0098,0.3442
0.0366,0.4419,0.0049,0.0024,0.0024,0.0024,0.0952,0.2563,0.0098,0.3442
0.0342,0.4443,0.0049,0.0024,0.0024,0.0024,0.1025,0.2466,0.0024,0.3467
0.0293,0.4175,0.0024,0.0024,0.0024,0.0024,0.1172,0.2124,0.0024,0.3687
0.0244,0.5518,0.0024,0.0024,0.0024,0.0024,0.0928,0.2124,0.0024,0.3711
0.0122,0.2344,0.0024,0.0024,0.0024,0.0024,0.0757,0.1782,0.0024,0.3125
0.0293,0.3027,0.0024,0.0024,0.0024,0.0024,0.0903,0.1831,0.0024,0.3345
0.0171,0.2393,0.0024,0.0024,0.0024,0.0024,0.0684,0.1489,0.0024,0.3467
0.0415,0.3979,0.0024,0.0024,0.0024,0.0024,0.0732,0.1758,0.0024,0.3687
0.0073,0.3564,0.0024,0.0024,0.0024,0.0024,0.1025,0.1563,0.0024,0.3564
0.0098,0.3491,0.0024,0.0024,0.0024,0.0024,0.0806,0.1636,0.0024,0.3394
0.0024,0.2197,0.0024,0.0024,0.0024,0.0024,0.0879,0.1367,0.0024,0.3418
0.0171,0.0903,0.0024,0.0024,0.0024,0.0024,0.0952,0.1782,0.0024,0.3882
0.0073,0.144,0.0024,0.0024,0.0024,0.0024,0.0635,0.1538,0.0024,0.3735
0.022,0.3149,0.0024,0.0024,0.0024,0.0024,0.0513,0.1758,0.0024,0.3687
0.0171,0.3979,0.0024,0.0024,0.0024,0.0024,0.0439,0.1563,0.0024,0.3638
0.0073,0.4541,0.0024,0.0024,0.0024,0.0024,0.0439,0.1489,0.0024,0.3467
0.0024,0.4565,0.0024,0.0024,0.0024,0.0024,0.0439,0.1489,0.0024,0.3467
0.0049,0.354,0.0024,0.0024,0.0024,0.0024,0.061,0.1807,0.0024,0.3467
0.0024,0.3198,0.0024,0.0024,0.0024,0.0024,0.0659,0.1904,0.0024,0.3491
0.0122,0.459,0.0024,0.0024,0.0024,0.0024,0.0513,0.1904,0.0024,0.3247
0.0146,0.4956,0.0024,0.0024,0.0024,0.0024,0.0732,0.1147,0.0024,0.354
0.0269,0.3662,0.0024,0.0024,0.0024,0.0024,0.1025,0.1709,0.0024,0.3345
0.0244,0.4907,0.0024,0.0024,0.0024,0.0049,0.061,0.1709,0.0024,0.3467
0.0171,0.3931,0.0024,0.0024,0.0024,0.0024,0.083,0.1807,0.0024,0.3564
0.0049,0.4028,0.0024,0.0024,0.0024,0.0024,0.0684,0.1709,0.0024,0.3296
0.0098,0.5151,0.0024,0.0024,0.0024,0.0024,0.0391,0.1392,0.0024,0.3198
0.0269,0.4248,0.0024,0.0024,0.0024,0.0024,0.0415,0.1709,0.0024,0.3198
0.0269,0.4272,0.0098,0.0024,0.0024,0.0024,0.0806,0.2002,0.0024,0.354
0.0317,0.4517,0.0024,0.0024,0.0024,0.0024,0.0854,0.2783,0.0024,0.3442
0.061,0.332,0.0049,0.0024,0.0024,0.0024,0.1001,0.2417,0.0024,0.3369
0.0171,0.4102,0.0024,0.0024,0.0024,0.0024,0.0586,0.1807,0.0024,0.3394
0.0098,0.293,0.0024,0.0024,0.0024,0.0024,0.0757,0.2051,0.0024,0.3516
0.0464,0.5298,0.0049,0.0024,0.0024,0.0024,0.061,0.2173,0.0024,0.3687
0.0293,0.564,0.0024,0.0024,0.0024,0.0024,0.1025,0.1831,0.0024,0.3662
0.0195,0.4639,0.0024,0.0024,0.0024,0.0024,0.083,0.1807,0.0024,0.3491
0.0415,0.8838,0.0146,0.0024,0.0024,0.0024,0.105,0.2075,0.0171,0.3711
0.0488,0.9888,0.022,0.0024,0.0024,0.0024,0.105,0.1758,0.0195,0.3784
0.022,0.52,0.0024,0.0024,0.0024,0.0024,0.0781,0.1465,0.0024,0.3394
0.0024,0.0952,0.0024,0.0024,0.0024,0.0024,0.0879,0.1172,0.0024,0.3589
0.0024,0.1001,0.0024,0.0024,0.0024,0.0024,0.0781,0.105,0.0024,0.3589
0.0073,0.1953,0.0024,0.0024,0.0024,0.0024,0.0708,0.1318,0.0024,0.3516
0.0098,0.2441,0.0024,0.0024,0.0024,0.0024,0.0806,0.1392,0.0024,0.354
0.0171,0.249,0.0098,0.0024,0.0024,0.0024,0.0928,0.1709,0.0024,0.3711
0.0171,0.4224,0.0073,0.0024,0.0024,0.0024,0.0757,0.1636,0.0024,0.3638
0.0122,0.4346,0.0024,0.0024,0.0024,0.0024,0.0854,0.1538,0.0024,0.3613
0.0317,0.2246,0.0024,0.0024,0.0024,0.0024,0.0732,0.1709,0.0024,0.3564
0.0024,0.2441,0.0049,0.0024,0.0024,0.0024,0.0903,0.1196,0.0049,0.3516
0.0342,0.2051,0.0024,0.0024,0.0024,0.0024,0.0757,0.1904,0.0024,0.3467
0.0049,0.1465,0.0049,0.0024,0.0024,0.0024,0.0659,0.1245,0.0024,0.3735
0.0122,0.3491,0.0024,0.0024,0.0024,0.0024,0.105,0.188,0.0024,0.3345
0.0024,0.3711,0.0024,0.0024,0.0024,0.0024,0.061,0.188,0.0024,0.3296
0.0122,0.3931,0.0024,0.0024,0.0024,0.0024,0.061,0.188,0.0024,0.3516
0.0293,0.3271,0.0024,0.0024,0.0049,0.0024,0.0757,0.1514,0.0024,0.332
0.0098,0.3955,0.0049,0.0024,0.0049,0.0024,0.0586,0.1636,0.0024,0.3491
0.0391,0.3979,0.0024,0.0024,0.0024,0.0024,0.0562,0.188,0.0024,0.3735
0.0195,0.4565,0.0049,0.0024,0.0049,0.0024,0.0757,0.1343,0.0024,0.3589
0.0073,0.3833,0.0024,0.0024,0.0024,0.0024,0.0635,0.1514,0.0024,0.3564
0.0049,0.3369,0.0024,0.0024,0.0024,0.0024,0.0806,0.1514,0.0073,0.354
0.0195,0.4321,0.0171,0.0024,0.0024,0.0024,0.0586,0.1733,0.0024,0.3491
0.022,0.3369,0.0024,0.0024,0.0024,0.0024,0.0781,0.1685,0.0024,0.354
0.0098,0.2686,0.0073,0.0024,0.0024,0.0024,0.061,0.1782,0.0024,0.354
0.0098,0.3174,0.0098,0.0024,0.0049,0.0024,0.0635,0.1782,0.0024,0.3491
0.0171,0.3906,0.0146,0.0024,0.0024,0.0024,0.061,0.1758,0.0024,0.3442
0.0195,0.3882,0.0122,0.0024,0.0024,0.0024,0.061,0.1758,0.0049,0.3467
0.0146,0.3662,0.0073,0.0024,0.0024,0.0024,0.0586,0.1685,0.0024,0.3491
0.0146,0.3003,0.0073,0.0024,0.0024,0.0024,0.1025,0.1538,0.0024,0.3662
0.0244,0.3003,0.0024,0.0024,0.0024,0.0024,0.0854,0.188,0.0024,0.3394
0.0171,0.3809,0.0024,0.0024,0.0024,0.0024,0.0903,0.1367,0.0024,0.3564
0.0098,0.2734,0.0049,0.0024,0.0024,0.0024,0.0977,0.1392,0.0049,0.3516
0.0098,0.2393,0.0024,0.0024,0.0024,0.0024,0.0684,0.1294,0.0024,0.3149
0.0024,0.249,0.0024,0.0024,0.0024,0.0024,0.0708,0.1147,0.0024,0.3223
0.0171,0.2686,0.0024,0.0024,0.0024,0.0024,0.0854,0.1392,0.0049,0.3491
0.0195,0.3418,0.0024,0.0024,0.0024,0.0024,0.083,0.1343,0.0024,0.3394
0.022,0.2856,0.0024,0.0024,0.0024,0.0024,0.1001,0.1245,0.0024,0.3369
0.0024,0.3174,0.0073,0.0024,0.0024,0.0024,0.0708,0.1416,0.0024,0.3711
0.0024,0.2881,0.0049,0.0024,0.0024,0.0024,0.0659,0.1367,0.0024,0.3735
0.0049,0.2026,0.0024,0.0024,0.0024,0.0024,0.0537,0.166,0.0024,0.3662
0.0146,0.2515,0.0024,0.0024,0.0024,0.0024,0.0635,0.1758,0.0024,0.354
0.0195,0.2661,0.0024,0.0024,0.0024,0.0024,0.0684,0.1807,0.0024,0.3467
0.0171,0.249,0.0024,0.0024,0.0024,0.0024,0.0684,0.1733,0.0024,0.3369
0.0146,0.3369,0.0024,0.0049,0.0024,0.0024,0.0659,0.1367,0.0024,0.3467
0.0024,0.188,0.0024,0.0024,0.0024,0.0024,0.0488,0.0977,0.0024,0.3442
0.0098,0.3931,0.0024,0.0024,0.0024,0.0024,0.0806,0.1465,0.0024,0.332
0.0269,0.3955,0.0024,0.0024,0.0024,0.0024,0.0537,0.1392,0.0024,0.3662
0.0366,0.2295,0.0122,0.0024,0.0024,0.0024,0.0781,0.1636,0.0024,0.3345
0.0049,0.2075,0.0024,0.0024,0.0049,0.0024,0.0854,0.1367,0.0024,0.354
0.0098,0.1196,0.0024,0.0024,0.0024,0.0024,0.061,0.144,0.0024,0.3687
0.0195,0.3638,0.0024,0.0024,0.0024,0.0024,0.0757,0.1733,0.0024,0.3589
0.0098,0.3931,0.0073,0.0024,0.0024,0.0024,0.127,0.1611,0.0024,0.376
0.0073,0.3394,0.0024,0.0024,0.0024,0.0024,0.1099,0.144,0.0024,0.3857
0.0049,0.2539,0.0024,0.0024,0.0024,0.0024,0.1025,0.1392,0.0024,0.3882
0.0049,0.0806,0.0024,0.0024,0.0049,0.0024,0.0635,0.1538,0.0024,0.3467
0.0073,0.1978,0.0024,0.0024,0.0024,0.0024,0.0732,0.1538,0.0024,0.3394
0.0098,0.3931,0.0024,0.0024,0.0024,0.0024,0.0635,0.1392,0.0024,0.3467
0.0073,0.354,0.0024,0.0024,0.0024,0.0024,0.0635,0.1294,0.0024,0.3442
0.0146,0.2051,0.0024,0.0024,0.0024,0.0024,0.0635,0.1367,0.0024,0.3394
0.0195,0.2417,0.0024,0.0024,0.0024,0.0024,0.0659,0.1392,0.0024,0.3394
0.0024,0.332,0.0024,0.0024,0.0024,0.0024,0.0537,0.1294,0.0024,0.3613
0.0146,0.2905,0.0073,0.0024,0.0024,0.0024,0.1099,0.1709,0.0024,0.3418
0.0098,0.1367,0.0024,0.0024,0.0024,0.0049,0.0879,0.127,0.0024,0.3296
0.0024,0.2832,0.0024,0.0024,0.0024,0.0024,0.0781,0.1758,0.0024,0.3003
0.0024,0.2319,0.0024,0.0024,0.0024,0.0024,0.0928,0.144,0.0024,0.3003
0.0244,0.3247,0.0073,0.0024,0.0024,0.0024,0.0708,0.166,0.0024,0.2905
0.0073,0.3052,0.0024,0.0024,0.0024,0.0024,0.0757,0.1465,0.0024,0.293
0.0122,0.3906,0.0098,0.0024,0.0024,0.0024,0.0586,0.1465,0.0024,0.3003
0.0244,0.3101,0.0024,0.0024,0.0024,0.0024,0.0537,0.166,0.0024,0.3101
0.0098,0.3711,0.0024,0.0024,0.0049,0.0024,0.083,0.1758,0.0024,0.2856
0.0073,0.3784,0.0073,0.0024,0.0024,0.0024,0.0757,0.1587,0.0024,0.2881
0.0073,0.3442,0.0024,0.0024,0.0024,0.0049,0.0684,0.1514,0.0024,0.2954
0.0024,0.2588,0.0024,0.0024,0.0024,0.0024,0.0879,0.1587,0.0024,0.2979
0.0049,0.2246,0.0024,0.0024,0.0024,0.0024,0.0879,0.1563,0.0024,0.2979
0.0098,0.2295,0.0024,0.0024,0.0024,0.0024,0.0879,0.1514,0.0024,0.2979
0.0342,0.3882,0.0024,0.0024,0.0024,0.0024,0.0732,0.1953,0.0049,0.2637
0.022,0.3345,0.0024,0.0024,0.0024,0.0024,0.083,0.1807,0.0073,0.271
0.0049,0.0977,0.0024,0.0024,0.0024,0.0024,0.0708,0.1416,0.0024,0.2832
0.0024,0.3027,0.0024,0.0024,0.0024,0.0024,0.0586,0.1538,0.0024,0.2808
0.0146,0.2441,0.0024,0.0024,0.0024,0.0024,0.1074,0.1782,0.0024,0.2637
0.0195,0.293,0.0122,0.0024,0.0024,0.0024,0.0928,0.1685,0.0024,0.2979
0.0269,0.4028,0.0269,0.0024,0.0024,0.0024,0.0854,0.1782,0.0024,0.2954
0.0171,0.3101,0.0049,0.0024,0.0024,0.0024,0.0952,0.144,0.0049,0.2881
0.022,0.3809,0.0049,0.0024,0.0024,0.0024,0.1001,0.1465,0.0049,0.2881
0.0122,0.376,0.0049,0.0024,0.0024,0.0024,0.0635,0.1538,0.0049,0.2881
0.0195,0.4883,0.0073,0.0024,0.0049,0.0024,0.0562,0.1538,0.0024,0.2881
0.0024,0.2661,0.0024,0.0024,0.0024,0.0024,0.0635,0.1074,0.0024,0.2881
0.0049,0.376,0.0098,0.0024,0.0024,0.0024,0.0342,0.1392,0.0024,0.3125
0.0317,0.2832,0.0024,0.0024,0.0024,0.0049,0.1025,0.144,0.0024,0.3027
0.0024,0.3027,0.0024,0.0024,0.0024,0.0024,0.0879,0.144,0.0049,0.2856
0.0024,0.1929,0.0024,0.0024,0.0024,0.0024,0.0781,0.1489,0.0024,0.2759
0.0098,0.3809,0.0049,0.0024,0.0024,0.0024,0.0806,0.1221,0.0024,0.3027
0.0244,0.3516,0.0024,0.0024,0.0024,0.0024,0.0806,0.1611,0.0024,0.2832
0.0146,0.4639,0.0024,0.0024,0.0024,0.0024,0.1172,0.1904,0.0024,0.2881
0.0171,0.3491,0.0024,0.0024,0.0024,0.0024,0.1123,0.1855,0.0024,0.2881
0.0024,0.5225,0.0073,0.0024,0.0024,0.0024,0.1025,0.1685,0.0024,0.2954
0.0171,0.3467,0.0073,0.0024,0.0024,0.0024,0.0757,0.1538,0.0024,0.2808
0.0171,0.4663,0.0024,0.0024,0.0024,0.0024,0.0806,0.1538,0.0122,0.2832
0.0122,0.3589,0.0024,0.0024,0.0024,0.0024,0.0903,0.1538,0.0024,0.2905
0.0073,0.2881,0.0024,0.0024,0.0024,0.0024,0.1025,0.1538,0.0024,0.271
0.0098,0.3418,0.0024,0.0024,0.0024,0.0024,0.1025,0.1538,0.0024,0.2686
0.0317,0.4858,0.0049,0.0024,0.0024,0.0073,0.1343,0.188,0.0024,0.2783
0.0269,0.3687,0.0049,0.0024,0.0024,0.0024,0.1465,0.2075,0.0024,0.2881
0.022,0.2686,0.0049,0.0024,0.0024,0.0049,0.1538,0.2026,0.0024,0.2881
0.0171,0.4077,0.022,0.0024,0.0024,0.0024,0.1294,0.1733,0.0024,0.2979
0.0122,0.2759,0.0073,0.0024,0.0024,0.0024,0.0684,0.1392,0.0024,0.3149
0.0049,0.3613,0.0024,0.0024,0.0024,0.0024,0.0708,0.1587,0.0024,0.293
0.0024,0.2783,0.0024,0.0024,0.0024,0.0024,0.0562,0.1367,0.0024,0.293
0.022,0.2588,0.0024,0.0024,0.0024,0.0024,0.0757,0.1685,0.0024,0.2881
0.0122,0.3564,0.0024,0.0024,0.0024,0.0024,0.0854,0.1953,0.0024,0.3101
0.022,0.3638,0.0049,0.0024,0.0024,0.0024,0.1099,0.1685,0.0024,0.3394
0.022,0.3174,0.0098,0.0024,0.0024,0.0024,0.105,0.1636,0.0024,0.3369
0.0122,0.3198,0.0049,0.0024,0.0024,0.0024,0.0879,0.1318,0.0024,0.3613
0.0024,0.3296,0.0049,0.0024,0.0049,0.0024,0.0684,0.1367,0.0024,0.3687
0.0122,0.3638,0.0049,0.0024,0.0024,0.0024,0.1147,0.1587,0.0024,0.3687
0.0098,0.3516,0.0024,0.0024,0.0024,0.0024,0.1025,0.1367,0.0024,0.3638
0.0073,0.4395,0.0024,0.0049,0.0024,0.0024,0.083,0.1758,0.0024,0.3491
0.0024,0.332,0.0024,0.0024,0.0024,0.0024,0.0757,0.1147,0.0024,0.3784
0.0024,0.3491,0.0049,0.0024,0.0024,0.0024,0.0708,0.1074,0.0024,0.3735
0.0024,0.3345,0.0049,0.0024,0.0024,0.0024,0.0586,0.1001,0.0024,0.3516
0.0122,0.3052,0.0024,0.0024,0.0024,0.0024,0.0586,0.1514,0.0024,0.376
0.0024,0.4346,0.0024,0.0024,0.0024,0.0024,0.0488,0.1514,0.0024,0.3955
0.0024,0.3979,0.0024,0.0024,0.0024,0.0024,0.0415,0.1147,0.0024,0.3687
0.0024,0.3613,0.0024,0.0024,0.0024,0.0024,0.0391,0.1123,0.0024,0.3589
0.0098,0.4297,0.0024,0.0024,0.0024,0.0024,0.0903,0.1514,0.0024,0.3418
0.0171,0.3711,0.0049,0.0024,0.0024,0.0024,0.0659,0.1489,0.0024,0.3589
0.0122,0.3564,0.0024,0.0024,0.0024,0.0024,0.0586,0.1563,0.0024,0.3711
0.0073,0.2905,0.0049,0.0024,0.0024,0.0024,0.105,0.1514,0.0024,0.3882
0.0049,0.3516,0.0024,0.0024,0.0024,0.0024,0.0562,0.1538,0.0024,0.3638
0.0952,0.4272,0.0024,0.0024,0.0024,0.0024,0.0635,0.4321,0.0024,0.3809
0.0415,0.3442,0.0024,0.0024,0.0024,0.0024,0.061,0.2441,0.0049,0.3613
0.0244,0.2979,0.0024,0.0024,0.0024,0.0024,0.0732,0.1953,0.0024,0.3711
0.0317,0.3101,0.0024,0.0024,0.0024,0.0024,0.0684,0.2075,0.0024,0.3809
0.0269,0.3125,0.0024,0.0024,0.0024,0.0024,0.0635,0.1855,0.0024,0.3711
0.0073,0.4126,0.0049,0.0024,0.0024,0.0024,0.0708,0.1611,0.0049,0.3467
0.0098,0.3369,0.0024,0.0024,0.0024,0.0024,0.0537,0.1196,0.0024,0.3735
0.0098,0.4346,0.0024,0.0024,0.0024,0.0024,0.0854,0.1563,0.0024,0.3516
0.0073,0.4224,0.0024,0.0024,0.0024,0.0024,0.0732,0.1416,0.0024,0.3589
0.0098,0.2368,0.0024,0.0024,0.0024,0.0024,0.0757,0.1465,0.0024,0.3711
0.0073,0.3247,0.0024,0.0024,0.0024,0.0024,0.0635,0.1636,0.0024,0.3638
0.022,0.4297,0.0024,0.0024,0.0024,0.0024,0.0732,0.1514,0.0024,0.354
0.0195,0.4028,0.0024,0.0024,0.0024,0.0024,0.0732,0.1367,0.0024,0.376
0.0073,0.2441,0.0024,0.0024,0.0049,0.0024,0.0635,0.1758,0.0024,0.354
0.0098,0.3052,0.0024,0.0024,0.0024,0.0024,0.0684,0.1709,0.0024,0.3687
0.0146,0.3687,0.0049,0.0024,0.0024,0.0024,0.0952,0.1978,0.0024,0.3589
0.0073,0.3076,0.0024,0.0024,0.0024,0.0024,0.0781,0.1636,0.0024,0.3589
0.0195,0.4321,0.0024,0.0024,0.0024,0.0024,0.0854,0.1978,0.0024,0.3711
0.0049,0.2563,0.0024,0.0024,0.0024,0.0049,0.0879,0.1538,0.0024,0.3735
0.0024,0.3101,0.0049,0.0024,0.0024,0.0024,0.0806,0.1343,0.0049,0.3589
0.0244,0.2881,0.0024,0.0024,0.0024,0.0024,0.0757,0.1538,0.0024,0.3687
0.0024,0.3076,0.0024,0.0024,0.0049,0.0024,0.0781,0.1489,0.0024,0.3662
0.0024,0.3418,0.0024,0.0024,0.0024,0.0024,0.0806,0.1514,0.0024,0.3613
0.0024,0.3394,0.0024,0.0024,0.0024,0.0024,0.0854,0.1538,0.0024,0.3662
0.0098,0.3687,0.0024,0.0024,0.0024,0.0024,0.0928,0.1343,0.0024,0.3638
0.0024,0.3589,0.0024,0.0024,0.0024,0.0024,0.061,0.1489,0.0024,0.3345
0.0171,0.3003,0.0024,0.0024,0.0024,0.0024,0.0732,0.1831,0.0024,0.3662
0.0073,0.3174,0.0024,0.0024,0.0024,0.0024,0.0391,0.1172,0.0024,0.3735
0.0098,0.2881,0.0049,0.0024,0.0024,0.0024,0.0366,0.1221,0.0024,0.3711
0.0049,0.3564,0.0049,0.0024,0.0024,0.0024,0.0391,0.1099,0.0024,0.4053
0.0024,0.3516,0.0024,0.0024,0.0024,0.0024,0.0464,0.1099,0.0024,0.3809
0.0024,0.21,0.0024,0.0024,0.0024,0.0024,0.0488,0.0952,0.0024,0.354
0.0024,0.2173,0.0024,0.0024,0.0024,0.0024,0.0537,0.1147,0.0024,0.3589
0.0049,0.3369,0.0024,0.0024,0.0024,0.0024,0.1025,0.1611,0.0024,0.3564
0.0122,0.2002,0.0024,0.0024,0.0024,0.0024,0.0806,0.1416,0.0024,0.3589
0.0049,0.2222,0.0024,0.0024,0.0024,0.0024,0.1025,0.144,0.0024,0.376
0.0024,0.2051,0.0024,0.0024,0.0024,0.0024,0.0879,0.1709,0.0024,0.3784
0.0049,0.2295,0.0024,0.0024,0.0024,0.0024,0.1001,0.1807,0.0024,0.3955
0.0195,0.3247,0.0146,0.0024,0.0024,0.0024,0.061,0.144,0.0024,0.4102
0.0024,0.0562,0.0024,0.0024,0.0024,0.0024,0.0659,0.1147,0.0024,0.3345
0.0024,0.1709,0.0024,0.0024,0.0024,0.0024,0.0635,0.1099,0.0024,0.3662
0.0024,0.1367,0.0049,0.0024,0.0024,0.0024,0.0586,0.105,0.0024,0.3589
0.0049,0.1099,0.0024,0.0024,0.0024,0.0024,0.0391,0.1196,0.0024,0.3491
0.0049,0.1221,0.0024,0.0024,0.0049,0.0024,0.0439,0.1245,0.0024,0.354
0.0024,0.1538,0.0049,0.0024,0.0024,0.0024,0.0513,0.1392,0.0024,0.3369
0.0098,0.1807,0.0049,0.0024,0.0024,0.0073,0.0635,0.1465,0.0024,0.3638
0.0024,0.188,0.0024,0.0024,0.0024,0.0024,0.061,0.1465,0.0024,0.376
0.0049,0.2686,0.0073,0.0024,0.0024,0.0024,0.0586,0.144,0.0024,0.3442
0.022,0.4492,0.0024,0.0024,0.0024,0.0024,0.0757,0.1343,0.0024,0.3442
0.0122,0.2881,0.0024,0.0024,0.0024,0.0024,0.0757,0.1465,0.0024,0.3613
0.0146,0.2637,0.0122,0.0024,0.0024,0.0024,0.0806,0.1221,0.0024,0.3931
0.0098,0.1367,0.0024,0.0024,0.0024,0.0024,0.083,0.1318,0.0024,0.354
0.0098,0.3223,0.0024,0.0024,0.0024,0.0024,0.061,0.105,0.0024,0.354
0.0122,0.3784,0.0024,0.0024,0.0024,0.0024,0.0757,0.1221,0.0024,0.3467
0.0024,0.3882,0.0024,0.0024,0.0024,0.0024,0.0854,0.127,0.0024,0.3564
0.0049,0.2783,0.0024,0.0024,0.0024,0.0024,0.0903,0.1245,0.0024,0.3662
0.0024,0.166,0.0024,0.0024,0.0024,0.0024,0.0635,0.0854,0.0024,0.3564
0.0073,0.3296,0.0024,0.0024,0.0024,0.0024,0.083,0.1196,0.0024,0.354
0.0049,0.2612,0.0024,0.0024,0.0024,0.0073,0.0903,0.1514,0.0024,0.3711
0.0098,0.1514,0.0024,0.0024,0.0024,0.0024,0.127,0.1709,0.0024,0.3735
0.0171,0.3931,0.0024,0.0024,0.0024,0.0073,0.0903,0.1294,0.0049,0.3687
0.0073,0.4028,0.0024,0.0024,0.0024,0.0024,0.0684,0.1367,0.0024,0.3467
0.0122,0.3491,0.0049,0.0024,0.0024,0.0024,0.0757,0.1587,0.0024,0.3345
0.0122,0.4077,0.0098,0.0024,0.0024,0.0024,0.1074,0.1953,0.0024,0.3882
0.0098,0.3857,0.0049,0.0024,0.0024,0.0024,0.0952,0.1636,0.0024,0.3906
0.0073,0.3687,0.0049,0.0024,0.0024,0.0024,0.083,0.1611,0.0024,0.3833
0.0122,0.3711,0.0024,0.0024,0.0024,0.0024,0.0879,0.1538,0.0024,0.3711
0.0171,0.3271,0.0024,0.0024,0.0024,0.0024,0.1025,0.1611,0.0024,0.3613
0.0317,0.4492,0.0024,0.0024,0.0024,0.0024,0.0928,0.1782,0.0024,0.3857
0.0244,0.3784,0.0024,0.0024,0.0024,0.0024,0.105,0.1831,0.0024,0.3638
0.0073,0.2075,0.0024,0.0024,0.0024,0.0024,0.0781,0.1465,0.0024,0.3589
0.0049,0.2856,0.0024,0.0024,0.0024,0.0024,0.0757,0.1196,0.0024,0.3711
0.0024,0.2539,0.0024,0.0024,0.0024,0.0024,0.0684,0.144,0.0024,0.3882
0.0024,0.21,0.0024,0.0024,0.0024,0.0024,0.0635,0.1489,0.0024,0.3857
0.0049,0.21,0.0049,0.0024,0.0049,0.0024,0.0708,0.1563,0.0024,0.376
0.0171,0.3076,0.0024,0.0024,0.0024,0.0024,0.105,0.127,0.0024,0.3931
0.0244,0.3345,0.0024,0.0024,0.0024,0.0049,0.1147,0.1245,0.0024,0.3857
0.0098,0.2026,0.0024,0.0024,0.0024,0.0024,0.0928,0.1221,0.0024,0.3687
0.0146,0.3076,0.0024,0.0024,0.0024,0.0024,0.0879,0.1294,0.0024,0.3442
0.022,0.2686,0.0024,0.0024,0.0024,0.0024,0.1074,0.1685,0.0024,0.3613
0.0073,0.2246,0.0024,0.0024,0.0024,0.0024,0.1025,0.1587,0.0024,0.3735
0.0122,0.2515,0.0049,0.0024,0.0024,0.0024,0.1099,0.1538,0.0024,0.3589
0.0098,0.3369,0.0024,0.0024,0.0024,0.0024,0.083,0.105,0.0024,0.3784
0.0049,0.2393,0.0049,0.0024,0.0024,0.0024,0.1001,0.1294,0.0024,0.3394
0.0244,0.3345,0.0024,0.0024,0.0049,0.0024,0.0854,0.1416,0.0024,0.3516
0.0195,0.2563,0.0024,0.0024,0.0024,0.0024,0.0952,0.144,0.0024,0.3638
0.0195,0.3296,0.0073,0.0024,0.0024,0.0024,0.0952,0.1465,0.0024,0.3589
0.0195,0.3516,0.0049,0.0024,0.0024,0.0024,0.0854,0.144,0.0024,0.3467
0.0171,0.3564,0.0024,0.0024,0.0024,0.0024,0.1123,0.1587,0.0024,0.3613
0.0269,0.4468,0.0098,0.0024,0.0024,0.0024,0.1099,0.1563,0.0049,0.3467
0.0098,0.3467,0.0024,0.0024,0.0024,0.0024,0.0854,0.1367,0.0024,0.3418
0.0073,0.3101,0.0171,0.0024,0.0024,0.0024,0.0952,0.1074,0.0024,0.3491
0.0122,0.3857,0.0195,0.0024,0.0024,0.0024,0.1172,0.1099,0.0024,0.354
0.0269,0.2734,0.0024,0.0024,0.0024,0.0024,0.1343,0.1855,0.0024,0.3711
0.0098,0.3809,0.0024,0.0024,0.0024,0.0024,0.1294,0.1416,0.0024,0.376
0.0073,0.3125,0.0024,0.0024,0.0024,0.0024,0.1172,0.1416,0.0024,0.3784
0.0171,0.3003,0.0024,0.0024,0.0024,0.0024,0.0757,0.1733,0.0024,0.3784
0.022,0.5298,0.0024,0.0024,0.0024,0.0024,0.1074,0.2124,0.0024,0.3491
0.0146,0.481,0.0024,0.0024,0.0024,0.0024,0.105,0.1953,0.0024,0.3638
0.0317,0.4175,0.0024,0.0024,0.0024,0.0098,0.437,0.2148,0.0073,0.3687
0.0366,0.8423,0.0024,0.0024,0.0024,0.0146,0.9155,0.2539,0.0049,0.3857
0.0488,0.8301,0.0024,0.0024,0.0024,0.022,1.1084,0.2783,0.0122,0.3809
0.0439,0.4907,0.0024,0.0024,0.0024,0.0244,1.3257,0.2441,0.0024,0.3638
0.0464,0.7031,0.0073,0.0024,0.0024,0.0317,1.4307,0.2417,0.0024,0.3564
0.0488,0.6396,0.0073,0.0024,0.0024,0.0439,1.4038,0.2271,0.0024,0.3638
0.0195,0.5933,0.0024,0.0024,0.0024,0.0366,1.2305,0.2173,0.0049,0.3589
0.0317,0.4736,0.0024,0.0024,0.0049,0.022,0.9155,0.2075,0.0024,0.3638
0.0171,0.437,0.0024,0.0024,0.0024,0.0171,0.9448,0.1831,0.0024,0.3613
0.0195,0.4565,0.0024,0.0024,0.0049,0.0195,0.9814,0.1953,0.0024,0.3662
0.0244,0.2905,0.0024,0.0024,0.0024,0.0244,1.4624,0.2344,0.0024,0.3638
0.0171,0.3101,0.0049,0.0024,0.0024,0.0244,1.1328,0.1953,0.0024,0.3394
0.0122,0.3174,0.0024,0.0024,0.0024,0.0293,1.0474,0.188,0.0024,0.3394
0.0659,0.0024,0.0024,0.0024,0.0024,0.0684,1.7065,0.2832,0.0024,0.3589
0.0684,0.0024,0.0024,0.0024,0.0024,0.0513,0.9009,0.2539,0.0024,0.3979
0.0195,0.0024,0.0024,0.0024,0.0024,0.0439,1.0059,0.2612,0.0024,0.3687
0.0122,0.0024,0.0024,0.0024,0.0024,0.0928,0.9839,0.2319,0.0024,0.3491
0.0171,0.0024,0.0024,0.0024,0.0024,0.0146,0.7471,0.2002,0.0024,0.3613
0.0122,0.0024,0.0024,0.0024,0.0024,0.0098,0.686,0.1929,0.0024,0.3564
0.0098,0.0024,0.0024,0.0024,0.0049,0.0024,0.542,0.2197,0.0024,0.3418
0.0049,0.0024,0.0024,0.0024,0.0024,0.0049,0.6323,0.2393,0.0024,0.3467
0.0024,0.0024,0.0049,0.0024,0.0024,0.0049,0.6079,0.1685,0.0024,0.3687
0.0024,0.0024,0.0024,0.0024,0.0024,0.0024,0.4224,0.1514,0.0024,0.3613
0.0049,0.0024,0.0024,0.0024,0.0024,0.0024,0.4736,0.1831,0.0024,0.3662
0.0049,0.0024,0.0024,0.0024,0.0049,0.0049,0.3198,0.1831,0.0024,0.3589
0.0024,0.0024,0.0024,0.0024,0.0024,0.0024,0.3101,0.1367,0.0024,0.3564
0.0049,0.0024,0.0049,0.0024,0.0024,0.0024,0.4175,0.1489,0.0024,0.3687
0.0024,0.0024,0.0024,0.0024,0.0024,0.0024,0.3735,0.1563,0.0024,0.376
0.0049,0.0024,0.0049,0.0024,0.0024,0.0024,0.1904,0.1563,0.0024,0.3833
0.0024,0.0024,0.0024,0.0024,0.0024,0.0024,0.3882,0.1563,0.0024,0.3687
0.0024,0.0024,0.0024,0.0024,0.0024,0.0073,0.2686,0.166,0.0024,0.3687
0.0024,0.0024,0.0024,0.0024,0.0049,0.0024,0.415,0.1489,0.0024,0.3711
0.0073,0.0024,0.0049,0.0024,0.0024,0.0073,0.2661,0.1953,0.0024,0.3882
0.0024,0.0024,0.0024,0.0024,0.0024,0.0122,0.2246,0.1953,0.0024,0.3784
0.0049,0.0024,0.0024,0.0024,0.0049,0.0024,0.3003,0.1636,0.0024,0.3638
0.0024,0.0024,0.0024,0.0024,0.0024,0.0024,0.2954,0.1733,0.0024,0.3589
0.0024,0.0024,0.0024,0.0024,0.0024,0.0024,0.3809,0.1514,0.0024,0.3442
0.0024,0.0024,0.0024,0.0024,0.0024,0.0024,0.3516,0.1514,0.0024,0.3467
0.0024,0.0024,0.0024,0.0024,0.0024,0.0024,0.2051,0.1196,0.0024,0.3564
0.0024,0.0024,0.0024,0.0024,0.0049,0.0024,0.2783,0.1245,0.0024,0.3662
0.0024,0.0024,0.0024,0.0024,0.0024,0.0024,0.2075,0.127,0.0024,0.3638
0.0024,0.0024,0.0024,0.0024,0.0024,0.0024,0.2881,0.1318,0.0024,0.3711
0.0098,0.0024,0.0024,0.0024,0.0024,0.0024,0.3589,0.1953,0.0024,0.354
0.0024,0.0024,0.0024,0.0024,0.0024,0.0049,0.3931,0.1611,0.0024,0.332
0.0024,0.0024,0.0024,0.0024,0.0024,0.0024,0.2783,0.144,0.0024,0.3442
0.0024,0.0024,0.0024,0.0024,0.0024,0.0024,0.4492,0.1392,0.0024,0.3638
0.0024,0.0024,0.0024,0.0024,0.0024,0.0049,0.3662,0.2002,0.0024,0.376
0.0024,0.0024,0.0024,0.0024,0.0024,0.0073,0.3955,0.1587,0.0024,0.3857
0.0049,0.0439,0.0024,0.0024,0.0024,0.0024,0.5273,0.1514,0.0024,0.3833
0.0049,0.0415,0.0049,0.0024,0.0024,0.0146,0.6519,0.188,0.0024,0.3809
0.0098,0.022,0.0024,0.0024,0.0024,0.0098,0.6177,0.2002,0.0024,0.3833
0.0049,0.0024,0.0049,0.0024,0.0024,0.0049,0.7324,0.1953,0.0024,0.3564
0.0024,0.0024,0.0024,0.0024,0.0024,0.0024,0.6909,0.1953,0.0024,0.3638
0.022,0.3906,0.0024,0.0024,0.0024,0.0049,0.3369,0.2002,0.0024,0.3955
0.0171,0.4541,0.0049,0.0024,0.0024,0.0024,0.3882,0.1904,0.0024,0.3955
0.022,0.5518,0.0073,0.0024,0.0024,0.0024,0.3735,0.1855,0.0024,0.3955
0.0293,0.5957,0.0024,0.0024,0.0024,0.0024,0.5762,0.2319,0.0024,0.3711
0.0171,0.3833,0.0024,0.0024,0.0024,0.0024,0.6274,0.2222,0.0024,0.4053
0.0171,0.376,0.0024,0.0024,0.0024,0.0049,0.6104,0.2148,0.0024,0.4102
0.0122,0.332,0.0024,0.0024,0.0024,0.0122,0.5127,0.2295,0.0024,0.3882
0.022,0.3833,0.0024,0.0024,0.0024,0.0171,0.5273,0.2051,0.0024,0.3467
0.0122,0.4517,0.0024,0.0024,0.0024,0.0098,0.6372,0.21,0.0024,0.3589
0.0244,0.4736,0.0024,0.0024,0.0024,0.0366,0.9424,0.2417,0.0024,0.3467
0.0122,0.0513,0.0024,0.0024,0.0024,0.0171,0.4565,0.1685,0.0024,0.3613
0.0122,0.0439,0.0024,0.0024,0.0024,0.0146,0.4736,0.1782,0.0024,0.3564
0.0073,0.0781,0.0024,0.0024,0.0024,0.0098,0.5762,0.2002,0.0024,0.3516
0.0098,0.0903,0.0024,0.0024,0.0024,0.0146,0.6348,0.2002,0.0024,0.3491
0.0073,0.0903,0.0024,0.0024,0.0024,0.0122,0.6592,0.1904,0.0024,0.3516
0.0049,0.0146,0.0024,0.0024,0.0024,0.0024,0.73,0.1709,0.0024,0.3833
0.0049,0.0024,0.0049,0.0024,0.0024,0.0024,0.7617,0.1636,0.0024,0.3711
0.0024,0.0024,0.0024,0.0024,0.0024,0.0024,0.8105,0.1514,0.0024,0.3613
0.0024,0.0024,0.0024,0.0024,0.0024,0.0024,1.0645,0.1294,0.0024,0.3442
0.0073,0.0708,0.0024,0.0024,0.0024,0.0049,0.7739,0.1245,0.0024,0.376
0.0146,0.0586,0.0024,0.0024,0.0024,0.0049,0.7178,0.1611,0.0024,0.3784
0.0049,0.105,0.0024,0.0024,0.0024,0.0049,0.647,0.1538,0.0024,0.3613
0.0049,0.0757,0.0024,0.0024,0.0024,0.0024,0.6226,0.1538,0.0024,0.3564
0.022,0.1245,0.0024,0.0024,0.0024,0.022,0.8667,0.2393,0.0024,0.3516
0.0098,0.3711,0.0024,0.0024,0.0024,0.0024,0.8032,0.1807,0.0024,0.3174
0.0122,0.0732,0.0024,0.0024,0.0049,0.0024,0.5737,0.1953,0.0024,0.376
0.0293,0.0073,0.0024,0.0024,0.0049,0.0171,0.6934,0.2588,0.0024,0.3467
0.022,0.0024,0.0024,0.0024,0.0024,0.0269,0.8984,0.2466,0.0024,0.3735
0.0366,0.4541,0.0122,0.0024,0.0024,0.022,0.6812,0.1978,0.0024,0.376
0.0195,0.0122,0.0024,0.0024,0.0024,0.0244,0.6543,0.21,0.0024,0.354
0.0269,0.0073,0.0024,0.0024,0.0024,0.0195,0.647,0.2271,0.0024,0.3589
0.0269,0.0024,0.0024,0.0024,0.0024,0.0171,0.5884,0.2344,0.0024,0.3467
0.0269,0.0024,0.0024,0.0024,0.0049,0.0195,0.5371,0.2417,0.0024,0.3442
0.0342,0.0024,0.0024,0.0024,0.022,0.061,0.5151,0.3198,0.0024,0.376
0.0269,0.0073,0.0024,0.0024,0.0171,0.0537,0.5322,0.2954,0.0024,0.3882
0.0171,0.0024,0.0024,0.0024,0.0024,0.0342,0.6641,0.2295,0.0024,0.4004
0.0146,0.0024,0.0024,0.0024,0.0024,0.0269,0.6152,0.2148,0.0024,0.3955
0.0366,0.0024,0.0024,0.0024,0.0024,0.0513,0.6567,0.2588,0.0024,0.376
0.0342,0.0024,0.0024,0.0024,0.0049,0.083,0.6885,0.3369,0.0024,0.3735
0.0391,0.0024,0.0024,0.0024,0.0049,0.0635,0.7959,0.3125,0.0024,0.3857
0.0513,0.0024,0.0024,0.0024,0.0098,0.0781,0.7056,0.293,0.0024,0.3809
0.0659,0.0024,0.0024,0.0024,0.0024,0.0098,0.52,0.2417,0.0024,0.3613
0.061,0.0024,0.0024,0.0024,0.0024,0.0098,0.5151,0.2563,0.0024,0.3613
0.0171,0.0024,0.0024,0.0024,0.0024,0.0024,0.4224,0.2246,0.0024,0.3735
0.0146,0.0024,0.0024,0.0024,0.0024,0.0049,0.293,0.21,0.0024,0.3711
0.022,0.0024,0.0024,0.0024,0.0024,0.0024,0.3564,0.2417,0.0024,0.3857
0.0073,0.0024,0.0024,0.0024,0.0049,0.0049,0.4102,0.2026,0.0024,0.3833
0.0098,0.0024,0.0024,0.0024,0.0024,0.0024,0.3491,0.2319,0.0024,0.3613
0.0049,0.0024,0.0024,0.0024,0.0024,0.0024,0.332,0.1953,0.0024,0.3589
0.0146,0.0024,0.0024,0.0024,0.0024,0.0024,0.4297,0.2197,0.0024,0.3662
0.0098,0.0024,0.0024,0.0024,0.0024,0.0024,0.4688,0.2051,0.0024,0.332
0.0171,0.0024,0.0024,0.0024,0.0024,0.0024,0.7642,0.21,0.0024,0.3882
0.022,0.0024,0.0024,0.0024,0.0024,0.0073,0.6763,0.2344,0.0024,0.3735
0.0317,0.0024,0.0024,0.0024,0.0024,0.022,0.6812,0.2612,0.0024,0.3687
0.0366,0.0024,0.0024,0.0024,0.0024,0.0195,0.4834,0.2612,0.0024,0.3809
0.0146,0.127,0.0024,0.0024,0.0024,0.0122,0.8862,0.1904,0.0024,0.3467
0.0122,0.105,0.0024,0.0024,0.0024,0.022,0.9985,0.1758,0.0024,0.3564
0.0122,0.0488,0.0024,0.0024,0.0049,0.0171,0.8643,0.1807,0.0024,0.3638
0.0171,0.0122,0.0024,0.0024,0.0024,0.0171,0.8765,0.21,0.0024,0.3735
0.0122,0.0024,0.0024,0.0024,0.0024,0.0098,0.8276,0.2173,0.0024,0.376
0.0073,0.0122,0.0049,0.0024,0.0024,0.0024,0.7813,0.2075,0.0024,0.3638
0.0122,0.0098,0.0024,0.0024,0.0024,0.0024,0.8105,0.2124,0.0024,0.3638
0.0146,0.0049,0.0024,0.0024,0.0024,0.0073,0.8228,0.2197,0.0024,0.3589
0.0098,0.0024,0.0024,0.0024,0.0024,0.0122,0.9131,0.2295,0.0024,0.3564
0.0049,0.0098,0.0024,0.0024,0.0024,0.0024,0.8008,0.2148,0.0024,0.3784
0.0122,0.0171,0.0024,0.0024,0.0024,0.0122,0.9399,0.2197,0.0024,0.3711
0.0049,0.0024,0.0024,0.0024,0.0024,0.0024,0.6738,0.2002,0.0024,0.3491
0.0049,0.0073,0.0024,0.0024,0.0024,0.0024,0.4492,0.2124,0.0024,0.3979
0.0024,0.0049,0.0024,0.0024,0.0024,0.0024,0.3882,0.1392,0.0024,0.3369
0.0098,0.0024,0.0024,0.0024,0.0024,0.0049,0.5249,0.2271,0.0024,0.3882
0.0122,0.0024,0.0024,0.0024,0.0024,0.0024,0.4761,0.2393,0.0024,0.3906
0.0171,0.0024,0.0024,0.0024,0.0024,0.0024,0.2002,0.2393,0.0024,0.3809
0.0146,0.0024,0.0024,0.0024,0.0049,0.0024,0.1318,0.1978,0.0024,0.3833
0.0049,0.0024,0.0024,0.0024,0.0024,0.0024,0.1733,0.1733,0.0024,0.3711
0.0024,0.0098,0.0024,0.0024,0.0024,0.0024,0.2808,0.1465,0.0024,0.3711
0.0024,0.0024,0.0024,0.0024,0.0024,0.0024,0.3003,0.1831,0.0024,0.3418
0.0122,0.0024,0.0024,0.0024,0.0024,0.0024,0.3906,0.2441,0.0024,0.3735
0.0098,0.0024,0.0024,0.0024,0.0024,0.0024,0.1807,0.2051,0.0024,0.3589
0.0098,0.0073,0.0049,0.0024,0.0024,0.0024,0.3369,0.188,0.0024,0.3662
0.0098,0.0024,0.0024,0.0024,0.0024,0.0024,0.3516,0.2271,0.0024,0.3784
0.0049,0.0024,0.0024,0.0024,0.0024,0.0024,0.3662,0.1807,0.0024,0.3589
0.0024,0.0024,0.0024,0.0024,0.0024,0.0024,0.354,0.1733,0.0024,0.3516
0.0024,0.0024,0.0024,0.0024,0.0049,0.0024,0.3687,0.1514,0.0024,0.3662
0.0024,0.0024,0.0024,0.0024,0.0024,0.0024,0.3784,0.1367,0.0024,0.376
0.0024,0.0024,0.0024,0.0024,0.0024,0.0024,0.3271,0.1514,0.0024,0.3638
0.0024,0.0024,0.0024,0.0024,0.0073,0.0073,0.4541,0.1636,0.0024,0.3564
0.0024,0.0024,0.0024,0.0024,0.0024,0.0024,0.4126,0.1709,0.0024,0.3931
0.0049,0.0024,0.0024,0.0024,0.0024,0.0024,0.3369,0.1685,0.0024,0.3882
0.0024,0.0024,0.0024,0.0024,0.0024,0.0024,0.4248,0.1855,0.0024,0.3589
0.0024,0.0073,0.0024,0.0024,0.0024,0.0024,0.3491,0.1904,0.0024,0.3589
0.0049,0.0024,0.0024,0.0024,0.0024,0.0024,0.4565,0.1831,0.0024,0.3687
0.0024,0.0024,0.0024,0.0024,0.0024,0.0024,0.2612,0.1196,0.0024,0.3833
0.0024,0.0024,0.0024,0.0024,0.0024,0.0024,0.3882,0.1196,0.0024,0.3979
0.0024,0.0024,0.0024,0.0024,0.0024,0.0049,0.3906,0.1343,0.0024,0.3882
0.0073,0.0024,0.0024,0.0024,0.0024,0.0073,0.3223,0.2075,0.0024,0.354
0.0049,0.0024,0.0024,0.0024,0.0024,0.0024,0.3003,0.2197,0.0024,0.3491
0.0024,0.0024,0.0024,0.0024,0.0024,0.0049,0.332,0.2002,0.0024,0.3394
0.0049,0.0024,0.0024,0.0024,0.0024,0.0122,0.437,0.1563,0.0024,0.3564
0.0146,0.0439,0.0024,0.0024,0.0024,0.0024,0.5884,0.2124,0.0024,0.3784
0.0098,0.0024,0.0024,0.0024,0.0024,0.0024,0.3857,0.2344,0.0024,0.3638
0.0195,0.0024,0.0024,0.0024,0.0024,0.0024,0.4346,0.2466,0.0024,0.3662
0.0195,0.0098,0.0024,0.0024,0.0024,0.0098,0.437,0.2808,0.0024,0.3638
0.0293,0.0024,0.0024,0.0024,0.0024,0.0073,0.4614,0.2808,0.0024,0.3687
0.0146,0.0073,0.0049,0.0024,0.0024,0.0098,0.8008,0.2441,0.0024,0.3711
0.0146,0.0024,0.0024,0.0024,0.0024,0.0098,0.8105,0.2441,0.0024,0.3662
0.0342,0.0024,0.0024,0.0024,0.0024,0.0049,0.7373,0.2759,0.0049,0.3638
0.0488,0.0195,0.0024,0.0024,0.0024,0.0586,1.0327,0.2173,0.0024,0.3687
0.1855,0.0024,0.0024,0.0024,0.0122,0.0854,1.0083,0.2808,0.0024,0.3711
0.1074,0.0024,0.0024,0.0024,0.0049,0.0854,1.0229,0.2588,0.0024,0.3564
0.1172,0.0024,0.0024,0.0024,0.0073,0.0635,0.7813,0.2856,0.0024,0.3784
0.0806,0.0024,0.0024,0.0024,0.0024,0.0854,0.752,0.2661,0.0024,0.3442
0.0635,0.0024,0.0024,0.0024,0.0098,0.0684,0.8472,0.2393,0.0024,0.3613
0.1514,0.0024,0.0024,0.0024,0.0073,0.1465,0.7007,0.271,0.0024,0.3613
0.144,0.0024,0.0024,0.0024,0.0049,0.1123,0.7593,0.271,0.0024,0.3394
0.061,0.0024,0.0024,0.0024,0.0024,0.0366,0.5957,0.2002,0.0024,0.3369
0.0415,0.0024,0.0024,0.0024,0.0024,0.0366,0.3076,0.2856,0.0024,0.3638
0.0342,0.0024,0.0024,0.0024,0.0024,0.0342,0.4736,0.2686,0.0024,0.3735
0.0024,0.0024,0.0024,0.0024,0.0024,0.0146,0.249,0.1782,0.0024,0.3809
0.0171,0.0024,0.0024,0.0024,0.0024,0.022,0.5298,0.2124,0.0024,0.3418
0.0146,0.0024,0.0024,0.0024,0.0024,0.0024,0.1733,0.2075,0.0024,0.3809
0.0049,0.0024,0.0024,0.0024,0.0024,0.0049,0.1221,0.2026,0.0024,0.3613
0.0049,0.0024,0.0024,0.0024,0.0024,0.0146,0.1978,0.2173,0.0024,0.3491
0.0024,0.0024,0.0024,0.0024,0.0024,0.0024,0.5835,0.1758,0.0024,0.3711
0.0024,0.0024,0.0024,0.0024,0.0024,0.0024,0.5859,0.1636,0.0024,0.3784
0.0024,0.0024,0.0024,0.0024,0.0024,0.0098,0.5054,0.1636,0.0024,0.3662
0.0098,0.0024,0.0024,0.0024,0.0024,0.0122,0.5859,0.2148,0.0024,0.3784
0.0024,0.0024,0.0024,0.0024,0.0024,0.0024,0.4956,0.1709,0.0024,0.3638
0.0073,0.0024,0.0024,0.0024,0.0024,0.0073,0.5811,0.166,0.0024,0.354
0.0073,0.0024,0.0024,0.0024,0.0024,0.0073,0.5908,0.1733,0.0024,0.3613
0.0049,0.0024,0.0024,0.0024,0.0024,0.0024,0.4199,0.1855,0.0024,0.3589
0.0049,0.0024,0.0024,0.0024,0.0024,0.0049,0.4932,0.1782,0.0024,0.3711
0.0073,0.0024,0.0024,0.0024,0.0024,0.0049,0.4834,0.2026,0.0024,0.3223
0.0024,0.0024,0.0024,0.0024,0.0024,0.0024,0.4517,0.1831,0.0024,0.3442
0.0024,0.0024,0.0024,0.0024,0.0049,0.0073,0.3174,0.1782,0.0024,0.3589
0.0024,0.0024,0.0024,0.0024,0.0024,0.0024,0.459,0.1807,0.0024,0.354
0.0049,0.0024,0.0024,0.0024,0.0024,0.0073,0.4785,0.1636,0.0024,0.3564
0.0024,0.0024,0.0024,0.0024,0.0049,0.0024,0.5078,0.1563,0.0024,0.3589
0.0146,0.0024,0.0049,0.0024,0.0073,0.0195,0.4468,0.2002,0.0024,0.3979
0.0171,0.0024,0.0024,0.0024,0.0073,0.022,0.4883,0.2051,0.0024,0.3931
0.0269,0.0024,0.0024,0.0024,0.0024,0.0293,0.9473,0.2563,0.0024,0.376
0.0073,0.0049,0.0024,0.0024,0.0024,0.0415,1.2451,0.1831,0.0024,0.3735
0.0098,0.0024,0.0049,0.0024,0.0024,0.0122,0.6274,0.2026,0.0024,0.354
0.0024,0.0024,0.0024,0.0024,0.0024,0.0024,0.7471,0.1733,0.0024,0.3418
0.0024,0.0024,0.0024,0.0024,0.0024,0.0049,0.5469,0.188,0.0024,0.3369
0.0073,0.0024,0.0024,0.0024,0.0024,0.0073,0.7642,0.166,0.0024,0.3467
0.0024,0.0024,0.0049,0.0024,0.0024,0.0024,0.7129,0.1855,0.0024,0.3442
0.0024,0.0024,0.0024,0.0024,0.0024,0.0098,0.813,0.1685,0.0024,0.3369
0.0049,0.0024,0.0024,0.0024,0.0024,0.0098,0.7495,0.1855,0.0024,0.3467
0.0049,0.0024,0.0024,0.0024,0.0024,0.0049,0.6885,0.1782,0.0024,0.3467
0.0073,0.0024,0.0024,0.0024,0.0024,0.0049,0.5981,0.1831,0.0024,0.3784
0.0293,0.0024,0.0024,0.0024,0.0024,0.0146,0.6519,0.2271,0.0024,0.354
0.0098,0.0024,0.0024,0.0024,0.0024,0.0244,0.6226,0.2295,0.0024,0.3589
0.0098,0.0024,0.0024,0.0024,0.0024,0.0195,0.5615,0.2344,0.0024,0.3613
0.0024,0.0024,0.0024,0.0024,0.0024,0.0122,0.3345,0.2148,0.0024,0.3687
0.0024,0.0024,0.0024,0.0024,0.0024,0.0024,0.4663,0.188,0.0024,0.3638
0.0049,0.0024,0.0024,0.0024,0.0024,0.0024,0.4663,0.1807,0.0024,0.3711
0.0049,0.0024,0.0024,0.0024,0.0024,0.0098,0.4736,0.144,0.0024,0.3687
0.0073,0.0024,0.0024,0.0024,0.0049,0.0171,0.5762,0.1587,0.0024,0.3711
0.0098,0.0024,0.0024,0.0024,0.0049,0.0244,0.5737,0.1636,0.0024,0.3662
0.0024,0.0024,0.0024,0.0024,0.0024,0.022,0.5469,0.1538,0.0024,0.354
0.0024,0.0024,0.0024,0.0024,0.0024,0.0024,0.4834,0.1025,0.0024,0.3662
0.0024,0.0024,0.0024,0.0024,0.0024,0.0024,0.4565,0.1025,0.0024,0.3589
0.0024,0.0024,0.0024,0.0024,0.0024,0.0049,0.3711,0.1099,0.0024,0.3564
0.0024,0.0024,0.0024,0.0024,0.0049,0.0024,0.3589,0.1147,0.0024,0.3516
0.0024,0.0024,0.0024,0.0024,0.0024,0.0146,0.603,0.127,0.0024,0.3711
0.0049,0.0024,0.0024,0.0024,0.0024,0.0073,0.5322,0.2197,0.0024,0.3394
0.0073,0.0024,0.0024,0.0024,0.0024,0.0366,0.4736,0.2368,0.0024,0.3516
0.0073,0.0024,0.0024,0.0024,0.0024,0.0146,0.5371,0.2051,0.0024,0.354
0.0073,0.0024,0.0024,0.0024,0.0024,0.0122,0.6348,0.2197,0.0024,0.3564
0.0024,0.0024,0.0024,0.0024,0.0024,0.0122,0.5981,0.21,0.0024,0.3589
0.0024,0.0024,0.0024,0.0024,0.0024,0.0171,0.4712,0.1587,0.0024,0.3613
0.0024,0.0024,0.0024,0.0024,0.0024,0.0122,0.6494,0.1294,0.0024,0.3662
0.0024,0.0024,0.0024,0.0024,0.0024,0.0098,0.4907,0.1587,0.0024,0.3833
0.0024,0.0024,0.0024,0.0024,0.0024,0.0146,0.5298,0.1465,0.0024,0.3735
0.0024,0.0024,0.0024,0.0024,0.0049,0.0146,0.7397,0.144,0.0024,0.3735
0.0024,0.0024,0.0024,0.0024,0.0024,0.0146,0.6787,0.1514,0.0024,0.3833
0.0024,0.0024,0.0024,0.0024,0.0024,0.0024,0.7495,0.1123,0.0024,0.3833
0.0073,0.0024,0.0024,0.0024,0.0024,0.0122,0.5859,0.2002,0.0024,0.3784
0.0024,0.0024,0.0024,0.0024,0.0024,0.0073,0.4932,0.1807,0.0024,0.3589
0.0146,0.0024,0.0024,0.0024,0.0024,0.0146,0.6372,0.2051,0.0024,0.354
0.0122,0.0024,0.0024,0.0024,0.0024,0.0073,0.7495,0.2148,0.0024,0.3735
0.0171,0.0024,0.0024,0.0024,0.0024,0.0171,0.7935,0.2075,0.0024,0.3662
0.0073,0.0024,0.0024,0.0024,0.0024,0.0171,0.7495,0.2026,0.0024,0.3638
0.0342,0.0024,0.0024,0.0024,0.0024,0.0854,1.7554,0.293,0.0024,0.3857
0.0244,0.0024,0.0024,0.0024,0.0024,0.0464,1.8018,0.2612,0.0024,0.376
0.0171,0.0024,0.0024,0.0024,0.0024,0.0659,1.6748,0.2368,0.0024,0.3687
0.0781,0.0024,0.0024,0.0024,0.0049,0.0586,1.4771,0.1904,0.0024,0.3442
0.0366,0.0024,0.0024,0.0024,0.0024,0.0903,1.0596,0.188,0.0024,0.332
0.2393,0.0024,0.0024,0.0024,0.0024,0.1563,1.6211,0.1538,0.0024,0.3687
0.3101,0.0024,0.0024,0.0024,0.0049,0.1318,1.6968,0.1489,0.0024,0.3784
0.3369,0.0024,0.0024,0.0049,0.0073,0.1392,1.5479,0.144,0.0024,0.3589
0.4004,0.0024,0.0024,0.0024,0.0146,0.1709,1.228,0.188,0.0024,0.3516
0.2148,0.0024,0.0024,0.0024,0.0024,0.1538,1.0522,0.1929,0.0024,0.3247
0.0171,0.0024,0.0024,0.0024,0.0024,0.0342,0.6958,0.1807,0.0024,0.3662
0.0024,0.0024,0.0024,0.0024,0.0024,0.0098,0.4736,0.1416,0.0024,0.3418
0.0024,0.0024,0.0024,0.0024,0.0024,0.0024,0.3101,0.1538,0.0024,0.3638
0.0024,0.0024,0.0024,0.0024,0.0024,0.0195,0.271,0.1611,0.0024,0.3662
0.0024,0.0024,0.0024,0.0024,0.0024,0.0049,0.1953,0.1245,0.0024,0.3467
0.0024,0.0024,0.0024,0.0024,0.0049,0.0024,0.188,0.1196,0.0024,0.3467
0.0146,0.0024,0.0024,0.0024,0.0024,0.0049,0.1782,0.1685,0.0024,0.3467
0.0049,0.0024,0.0024,0.0024,0.0024,0.0024,0.2319,0.1611,0.0024,0.3369
0.0024,0.0024,0.0024,0.0024,0.0024,0.0122,0.1709,0.1563,0.0024,0.3296
0.0024,0.0024,0.0024,0.0024,0.0024,0.0049,0.2271,0.1563,0.0024,0.3467
0.0024,0.0024,0.0024,0.0024,0.0024,0.0024,0.2173,0.1611,0.0024,0.3467
0.0024,0.0024,0.0024,0.0024,0.0049,0.0049,0.1953,0.127,0.0024,0.3589
0.0024,0.0024,0.0024,0.0024,0.0024,0.0073,0.1465,0.0928,0.0024,0.3662
0.0024,0.0024,0.0024,0.0024,0.0024,0.0024,0.1172,0.1245,0.0024,0.3564
0.0024,0.0024,0.0024,0.0024,0.0024,0.0024,0.0879,0.1416,0.0024,0.3491
0.0024,0.0024,0.0024,0.0024,0.0024,0.0024,0.1001,0.1099,0.0024,0.3662
0.0024,0.0024,0.0024,0.0024,0.0024,0.0024,0.0903,0.1123,0.0024,0.3735
0.0024,0.0024,0.0024,0.0024,0.0024,0.0024,0.0879,0.1245,0.0024,0.3857
0.0024,0.0024,0.0024,0.0024,0.0049,0.0024,0.0806,0.1196,0.0024,0.354
0.0024,0.0024,0.0024,0.0024,0.0024,0.0024,0.0708,0.1172,0.0024,0.3516
0.0024,0.0024,0.0024,0.0024,0.0024,0.0293,0.1099,0.144,0.0024,0.3418
0.0024,0.0024,0.0024,0.0024,0.0024,0.0537,0.1343,0.1221,0.0024,0.354
0.0049,0.0024,0.0024,0.0024,0.0024,0.0195,0.2222,0.1294,0.0024,0.3638
0.0024,0.0024,0.0024,0.0024,0.0024,0.0195,0.1172,0.1392,0.0024,0.3735
0.0024,0.0024,0.0049,0.0024,0.0024,0.0195,0.1953,0.1294,0.0024,0.3687
0.0024,0.0024,0.0024,0.0024,0.0024,0.0122,0.166,0.1196,0.0024,0.3662
0.0024,0.0024,0.0024,0.0024,0.0049,0.0439,0.1367,0.1245,0.0024,0.3613
0.0024,0.0024,0.0024,0.0024,0.0024,0.0171,0.2002,0.1343,0.0024,0.3687
0.0024,0.0024,0.0024,0.0024,0.0024,0.0098,0.1416,0.1245,0.0024,0.3516
0.0024,0.0024,0.0049,0.0024,0.0024,0.0024,0.1294,0.1025,0.0024,0.3491
0.0024,0.0024,0.0024,0.0049,0.0024,0.0024,0.1538,0.1099,0.0024,0.3516
0.0024,0.0024,0.0024,0.0024,0.0024,0.0146,0.1538,0.1367,0.0024,0.3833
0.0024,0.0024,0.0024,0.0024,0.0049,0.0244,0.2734,0.1514,0.0024,0.3857
0.0073,0.0024,0.0024,0.0024,0.0024,0.0269,0.4688,0.1636,0.0024,0.3687
0.0171,0.0024,0.0024,0.0024,0.0024,0.0171,0.6152,0.1855,0.0024,0.3467
0.0049,0.0024,0.0024,0.0024,0.0024,0.0342,0.6396,0.1807,0.0024,0.3613
0.0171,0.0024,0.0024,0.0024,0.0024,0.0293,0.4053,0.2295,0.0024,0.3784
0.022,0.0024,0.0024,0.0024,0.0024,0.0342,0.4688,0.2222,0.0024,0.3906
0.0171,0.0024,0.0024,0.0024,0.0024,0.0391,1.0205,0.2051,0.0024,0.3687
0.0146,0.0024,0.0024,0.0024,0.0024,0.0439,0.9448,0.2246,0.0024,0.3613
0.0171,0.0024,0.0024,0.0024,0.0024,0.0195,0.8667,0.2124,0.0024,0.3491
0.0171,0.0024,0.0024,0.0024,0.0024,0.0317,0.918,0.21,0.0024,0.3638
0.0195,0.0024,0.0024,0.0024,0.0024,0.0171,0.6323,0.2808,0.0024,0.3589
0.0171,0.0024,0.0024,0.0024,0.0024,0.0171,0.6763,0.2612,0.0024,0.3589
0.0122,0.0024,0.0024,0.0024,0.0024,0.0146,0.6982,0.2344,0.0024,0.3589
0.0122,0.0024,0.0024,0.0024,0.0024,0.0244,0.7056,0.2197,0.0024,0.3516
0.0073,0.0024,0.0024,0.0024,0.0049,0.0293,0.7568,0.1733,0.0049,0.3271
0.0024,0.0024,0.0049,0.0024,0.0024,0.022,1.311,0.1587,0.0024,0.3564
0.0024,0.0244,0.0024,0.0024,0.0024,0.0439,1.5869,0.1489,0.0024,0.3442
0.0488,0.0146,0.0024,0.0024,0.0024,0.0586,1.8896,0.2979,0.0024,0.3638
0.0317,0.0024,0.0024,0.0024,0.0049,0.0977,1.9141,0.3003,0.0024,0.3662
0.0659,0.0024,0.0024,0.0024,0.0073,0.0854,1.5381,0.2856,0.0024,0.3491
0.0293,0.0024,0.0024,0.0024,0.0049,0.0928,1.4307,0.2588,0.0024,0.3516
0.0464,0.0024,0.0024,0.0024,0.0024,0.0464,1.3599,0.2173,0.0024,0.3564
0.0098,0.0024,0.0024,0.0024,0.0024,0.0464,1.1646,0.1904,0.0024,0.3662
0.0024,0.0024,0.0024,0.0024,0.0024,0.0171,1.1597,0.1831,0.0024,0.3369
0.0024,0.0024,0.0024,0.0024,0.0024,0.0024,1.0034,0.0977,0.0024,0.3345
0.0049,0.0024,0.0024,0.0024,0.0024,0.0195,1.2964,0.1538,0.0024,0.3516
0.0073,0.0024,0.0024,0.0024,0.0024,0.0171,1.167,0.1367,0.0024,0.354
0.0024,0.0024,0.0049,0.0024,0.0024,0.022,1.2646,0.1611,0.0024,0.3223
0.0024,0.0024,0.0024,0.0024,0.0024,0.0195,1.1377,0.1489,0.0024,0.3271
0.0024,0.0024,0.0024,0.0049,0.0024,0.0195,1.311,0.1367,0.0024,0.3223
0.0024,0.0024,0.0024,0.0024,0.0024,0.0171,1.3965,0.1489,0.0024,0.3296
0.0024,0.0024,0.0049,0.0024,0.0024,0.0171,1.5015,0.1709,0.0024,0.376
0.0024,0.0024,0.0024,0.0024,0.0024,0.0122,1.5625,0.1294,0.0024,0.3589
0.0024,0.0024,0.0024,0.0024,0.0024,0.0073,1.394,0.1123,0.0024,0.3491
0.0073,0.0024,0.0024,0.0024,0.0024,0.0098,1.2598,0.2441,0.0024,0.3516
0.0049,0.0024,0.0024,0.0024,0.0024,0.0098,1.2085,0.2319,0.0024,0.3564
0.0024,0.0024,0.0024,0.0024,0.0024,0.0049,1.0547,0.1758,0.0024,0.3467
0.0098,0.0024,0.0024,0.0024,0.0024,0.0171,1.1108,0.1953,0.0024,0.3662
0.0024,0.0024,0.0024,0.0024,0.0024,0.0073,1.1768,0.1367,0.0024,0.3735
0.0073,0.0024,0.0024,0.0024,0.0024,0.0049,1.0718,0.1367,0.0024,0.3784
0.0024,0.0024,0.0024,0.0024,0.0024,0.0122,1.1646,0.1294,0.0024,0.3662
0.0024,0.0024,0.0024,0.0024,0.0024,0.0049,1.0986,0.1392,0.0024,0.3564
0.0024,0.0024,0.0024,0.0024,0.0024,0.0122,1.1987,0.1392,0.0024,0.3687
0.0024,0.0024,0.0049,0.0024,0.0024,0.0024,1.0522,0.1074,0.0024,0.3467
0.0024,0.0024,0.0024,0.0024,0.0024,0.0073,1.1377,0.083,0.0024,0.3394
0.0024,0.0024,0.0024,0.0024,0.0024,0.0024,1.1133,0.1514,0.0024,0.3345
0.0024,0.0024,0.0024,0.0024,0.0024,0.0024,1.0864,0.1465,0.0024,0.3467
0.0171,0.0024,0.0024,0.0024,0.0024,0.0098,0.9863,0.188,0.0024,0.3564
0.0122,0.0024,0.0024,0.0024,0.0024,0.0098,0.9351,0.1733,0.0024,0.3613
0.0049,0.0024,0.0024,0.0024,0.0024,0.0024,1.1426,0.1685,0.0024,0.3882
0.0073,0.0024,0.0024,0.0024,0.0024,0.0024,1.1108,0.1685,0.0024,0.3979
0.0024,0.0024,0.0024,0.0024,0.0024,0.0024,1.2085,0.1685,0.0024,0.3931
0.0024,0.0024,0.0049,0.0024,0.0024,0.0049,1.2524,0.1611,0.0024,0.3833
0.0024,0.0024,0.0024,0.0024,0.0024,0.0024,1.0889,0.1465,0.0024,0.3662
0.0024,0.0024,0.0024,0.0024,0.0024,0.0024,1.0864,0.1343,0.0024,0.354
0.0024,0.0024,0.0024,0.0024,0.0024,0.0024,1.123,0.083,0.0024,0.332
0.0024,0.0024,0.0024,0.0024,0.0024,0.0024,1.25,0.0928,0.0024,0.3369
0.0024,0.0024,0.0024,0.0024,0.0024,0.0073,1.4893,0.1367,0.0024,0.3711
0.0024,0.0024,0.0024,0.0024,0.0024,0.0024,1.2695,0.1367,0.0024,0.3394
0.0049,0.0024,0.0024,0.0024,0.0024,0.0024,0.9937,0.127,0.0024,0.3784
0.0024,0.0024,0.0024,0.0024,0.0024,0.0073,1.1084,0.1147,0.0024,0.3613
0.0024,0.0024,0.0024,0.0024,0.0024,0.0073,1.0669,0.1172,0.0024,0.3589
0.0024,0.0024,0.0024,0.0024,0.0024,0.0122,1.0376,0.1245,0.0024,0.3687
0.0024,0.0024,0.0024,0.0024,0.0024,0.0024,1.0254,0.1221,0.0024,0.3784
0.0024,0.0024,0.0024,0.0049,0.0024,0.0024,1.0156,0.1123,0.0024,0.3467
0.0049,0.0024,0.0024,0.0024,0.0024,0.0024,1.0889,0.1343,0.0024,0.3516
0.0122,0.0024,0.0024,0.0024,0.0024,0.0049,1.1157,0.2368,0.0024,0.3564
0.0049,0.0024,0.0024,0.0024,0.0024,0.0269,1.1499,0.2271,0.0024,0.3003
0.0244,0.0049,0.0024,0.0024,0.0024,0.0342,1.189,0.2539,0.0024,0.2759
0.022,0.0024,0.0024,0.0024,0.0024,0.0391,1.2622,0.2441,0.0024,0.2881
0.0269,0.0024,0.0024,0.0049,0.0024,0.083,1.5723,0.2393,0.0024,0.2881
0.0757,0.0024,0.0024,0.0024,0.0024,0.083,1.5186,0.2295,0.0024,0.2881
0.0952,0.0024,0.0049,0.0024,0.0024,0.0854,1.3477,0.2295,0.0024,0.2734
0.0684,0.0024,0.0024,0.0024,0.0024,0.0708,1.333,0.1831,0.0024,0.293
0.0024,0.0024,0.0024,0.0024,0.0024,0.0317,0.9741,0.2026,0.0024,0.2783
0.0146,0.0024,0.0024,0.0024,0.0024,0.0488,1.1963,0.2393,0.0024,0.2954
0.0195,0.0024,0.0024,0.0024,0.0024,0.0806,1.5039,0.2515,0.0024,0.2686
0.0586,0.0024,0.0024,0.0024,0.0024,0.0977,1.6357,0.2319,0.0024,0.293
0.0757,0.0049,0.0146,0.0171,0.0293,0.1465,1.5625,0.2734,0.0024,0.2808
0.0952,0.0269,0.0293,0.0366,0.0537,0.1123,1.2646,0.2686,0.0049,0.2759
0.0562,0.0122,0.0024,0.0024,0.0146,0.1099,1.0474,0.2637,0.0024,0.2588
0.0366,0.0269,0.0122,0.0024,0.0024,0.0684,1.2476,0.2539,0.0024,0.2783
0.0049,0.0098,0.0024,0.0024,0.0024,0.0635,1.0547,0.1953,0.0024,0.2759
0.0073,0.0024,0.0024,0.0024,0.0024,0.022,0.5396,0.21,0.0024,0.2856
0.0024,0.0024,0.0024,0.0024,0.0024,0.0024,0.3979,0.1514,0.0024,0.2954
0.0073,0.0024,0.0024,0.0024,0.0024,0.0342,0.415,0.1563,0.0024,0.2979
0.0049,0.0024,0.0024,0.0024,0.0024,0.0195,0.2637,0.1709,0.0024,0.293
0.0049,0.0024,0.0049,0.0024,0.0024,0.0244,0.293,0.1636,0.0024,0.2905
0.0073,0.0024,0.0024,0.0024,0.0024,0.0171,0.4785,0.166,0.0024,0.2686
0.0049,0.0024,0.0024,0.0024,0.0024,0.0171,0.5249,0.1685,0.0024,0.2734
0.0269,0.0024,0.0024,0.0024,0.0024,0.061,0.6909,0.249,0.0024,0.2734
0.0244,0.0024,0.0024,0.0024,0.0024,0.0635,0.769,0.2661,0.0024,0.2734
0.0122,0.0024,0.0024,0.0024,0.0024,0.0269,0.7007,0.21,0.0024,0.3003
0.0024,0.0024,0.0024,0.0024,0.0024,0.0439,1.0132,0.2075,0.0024,0.2979
0.0415,0.0024,0.0024,0.0024,0.0024,0.0415,0.5884,0.2881,0.0024,0.2808
0.0073,0.0024,0.0024,0.0024,0.0024,0.0195,0.5884,0.1929,0.0024,0.2588
0.0024,0.0024,0.0024,0.0024,0.0024,0.0171,0.4688,0.1733,0.0024,0.3003
0.0024,0.0024,0.0024,0.0024,0.0024,0.0073,0.7324,0.1733,0.0024,0.3027
0.0024,0.0024,0.0024,0.0024,0.0024,0.0049,0.7104,0.1831,0.0024,0.3076
0.0049,0.0024,0.0024,0.0024,0.0024,0.0073,0.5737,0.2002,0.0024,0.2832
0.0024,0.0024,0.0024,0.0024,0.0024,0.0073,0.4663,0.1782,0.0024,0.2734
0.0024,0.0024,0.0024,0.0024,0.0024,0.0122,0.791,0.1685,0.0024,0.293
0.0024,0.0024,0.0024,0.0024,0.0024,0.0122,0.752,0.1611,0.0024,0.293
0.0024,0.0024,0.0024,0.0024,0.0024,0.0024,0.6738,0.1343,0.0024,0.3101
0.0024,0.0024,0.0024,0.0024,0.0024,0.0049,0.7275,0.1367,0.0024,0.2563
0.0024,0.0024,0.0024,0.0024,0.0024,0.0073,0.8374,0.1367,0.0024,0.2686
0.0024,0.0024,0.0024,0.0024,0.0024,0.0098,0.7886,0.1123,0.0024,0.3027
0.0024,0.0024,0.0024,0.0024,0.0024,0.0122,0.8081,0.1392,0.0024,0.2905
0.0024,0.0024,0.0024,0.0024,0.0024,0.0049,0.8472,0.1416,0.0024,0.2881
0.0024,0.0024,0.0024,0.0024,0.0024,0.0024,0.8423,0.1392,0.0024,0.2808
0.0073,0.0024,0.0024,0.0024,0.0024,0.0073,0.7983,0.1904,0.0024,0.293
0.0024,0.0024,0.0024,0.0024,0.0024,0.0098,0.8057,0.1611,0.0024,0.2905
0.0024,0.0024,0.0024,0.0024,0.0024,0.0073,0.9424,0.1636,0.0024,0.3101
0.0073,0.0024,0.0024,0.0024,0.0024,0.0098,0.9839,0.1807,0.0024,0.3149
0.0073,0.0024,0.0024,0.0024,0.0024,0.0122,1.0327,0.1831,0.0024,0.3174
0.0024,0.0024,0.0024,0.0024,0.0024,0.0073,0.9229,0.1489,0.0024,0.2954
0.0024,0.0024,0.0024,0.0024,0.0024,0.0073,0.6567,0.1636,0.0024,0.2856
0.0024,0.0024,0.0024,0.0024,0.0024,0.0024,0.6226,0.1514,0.0024,0.2808
0.0024,0.0024,0.0024,0.0024,0.0024,0.0049,0.6543,0.144,0.0024,0.271
0.0024,0.0024,0.0024,0.0024,0.0024,0.0049,0.6006,0.1343,0.0024,0.2637
0.0073,0.0024,0.0024,0.0024,0.0024,0.0024,0.9912,0.1758,0.0024,0.2881
0.0195,0.0024,0.0024,0.0024,0.0024,0.0415,0.8936,0.2197,0.0024,0.2954
0.0024,0.0024,0.0024,0.0024,0.0024,0.0024,0.6714,0.2075,0.0024,0.2881
0.0024,0.0366,0.0024,0.0024,0.0024,0.0049,0.9351,0.2075,0.0024,0.2979
0.0098,0.0269,0.0024,0.0024,0.0024,0.0073,0.9546,0.21,0.0024,0.3027
0.0244,0.2222,0.0049,0.0024,0.0024,0.0244,1.084,0.2344,0.0073,0.2905
0.0439,0.3613,0.0049,0.0024,0.0024,0.0122,0.5103,0.249,0.0024,0.3076
0.0269,0.5127,0.0024,0.0024,0.0024,0.0098,0.5493,0.2271,0.0024,0.2979
0.022,0.7227,0.0024,0.0024,0.0024,0.0098,0.5688,0.2026,0.0024,0.2808
0.0244,0.3516,0.0024,0.0024,0.0024,0.0073,0.5957,0.2417,0.0024,0.2832
0.0244,0.3149,0.0024,0.0024,0.0049,0.0049,0.5396,0.2344,0.0024,0.2832
0.0415,0.2148,0.0024,0.0024,0.0049,0.0024,0.415,0.1758,0.0024,0.2783
0.0464,0.2637,0.0024,0.0024,0.0024,0.0024,0.3589,0.2393,0.0024,0.2612
0.0732,0.5273,0.0024,0.0024,0.0024,0.0146,0.4492,0.2319,0.0024,0.2563
0.0757,0.52,0.0024,0.0024,0.0024,0.0171,0.4565,0.2417,0.0024,0.2612
0.1099,0.3442,0.0024,0.0024,0.0024,0.0024,0.3711,0.4028,0.0024,0.2783
0.0513,0.4956,0.0024,0.0024,0.0024,0.0024,0.4199,0.2515,0.0024,0.2637
0.127,0.6226,0.0024,0.0024,0.0024,0.0024,0.5469,0.3149,0.0024,0.3491
0.1074,0.498,0.0024,0.0024,0.0024,0.0073,0.4199,0.3418,0.0024,0.3027
0.1099,0.6055,0.0024,0.0024,0.0024,0.0073,0.4028,0.3369,0.0024,0.2686
0.0806,0.3491,0.0024,0.0024,0.0024,0.0024,0.3784,0.2393,0.0024,0.3027
0.21,0.4028,0.0122,0.0024,0.0024,0.0024,0.2759,0.3442,0.0024,0.3101
0.1953,0.4443,0.0171,0.0024,0.0024,0.0024,0.2808,0.3467,0.0195,0.3223
0.2539,0.3491,0.0024,0.0024,0.0024,0.0024,0.2051,0.4517,0.0024,0.3296
0.2417,0.3052,0.0024,0.0024,0.0024,0.0024,0.1855,0.4468,0.0024,0.3247
0.3149,0.2832,0.0024,0.0024,0.0024,0.0024,0.2954,0.5981,0.0024,0.3149
0.2856,0.3027,0.0073,0.0024,0.0049,0.0073,0.3882,0.5273,0.0024,0.3516
0.3052,0.3882,0.0024,0.0024,0.0049,0.0122,0.3247,0.6299,0.0024,0.3247
0.2808,0.2881,0.0024,0.0024,0.0024,0.0122,0.2759,0.603,0.0024,0.3247
0.2148,0.2979,0.0049,0.0024,0.0024,0.0122,0.2295,0.5029,0.0024,0.3418
0.083,0.437,0.0024,0.0024,0.0024,0.0098,0.1733,0.3271,0.0024,0.2979
0.1538,0.3467,0.0024,0.0024,0.0024,0.0195,0.293,0.4028,0.0024,0.2905
0.1514,0.3711,0.0024,0.0024,0.0024,0.0171,0.2515,0.4102,0.0024,0.2832
0.061,0.3442,0.0024,0.0024,0.0024,0.0024,0.3076,0.2466,0.0024,0.3491
0.061,0.3003,0.0024,0.0024,0.0049,0.0049,0.3442,0.2344,0.0024,0.3491
0.061,0.0928,0.0024,0.0024,0.0024,0.0049,0.3516,0.2856,0.0024,0.3516
0.0806,0.0854,0.0024,0.0024,0.0024,0.0317,0.4248,0.3101,0.0024,0.3589
0.0488,0.0024,0.0024,0.0024,0.0024,0.0269,0.4565,0.293,0.0024,0.3418
0.0415,0.0024,0.0024,0.0024,0.0024,0.0317,1.001,0.2881,0.0024,0.3345
0.1099,0.0024,0.0024,0.0024,0.0024,0.0757,1.2427,0.2905,0.0024,0.3589
0.0757,0.0024,0.0024,0.0024,0.0024,0.1074,1.1792,0.3735,0.0024,0.354
0.0342,0.0024,0.0024,0.0024,0.0024,0.0732,0.6445,0.2588,0.0024,0.3638
0.0269,0.0024,0.0024,0.0024,0.0024,0.0513,0.5005,0.2539,0.0024,0.3491
0.0342,0.0024,0.0049,0.0024,0.0024,0.0415,0.5786,0.2856,0.0024,0.3052
0.0244,0.0024,0.0024,0.0024,0.0024,0.0171,0.3784,0.293,0.0024,0.3345
0.0244,0.0024,0.0024,0.0024,0.0024,0.0244,0.4102,0.3125,0.0024,0.3394
0.022,0.0024,0.0024,0.0024,0.0024,0.0415,0.7397,0.3223,0.0024,0.3442
0.0317,0.0098,0.0024,0.0024,0.0073,0.0439,0.9863,0.3223,0.0024,0.3149
0.0439,0.0024,0.0024,0.0024,0.0024,0.083,0.5444,0.3052,0.0024,0.3223
0.0317,0.0024,0.0024,0.0024,0.0024,0.0659,0.6494,0.293,0.0024,0.3223
0.0317,0.0024,0.0024,0.0024,0.0024,0.0586,0.6201,0.3003,0.0024,0.3223
0.0269,0.0024,0.0024,0.0024,0.0024,0.0244,0.2417,0.3101,0.0024,0.332
0.0269,0.0024,0.0024,0.0024,0.0024,0.022,0.2539,0.2954,0.0024,0.332
0.0342,0.0024,0.0049,0.0024,0.0073,0.0854,1.4307,0.2612,0.0024,0.3174
0.0415,0.0073,0.0024,0.0024,0.0098,0.1025,1.5967,0.2539,0.0024,0.3296
0.0415,0.0024,0.0024,0.0024,0.0098,0.1172,1.6553,0.249,0.0024,0.3296
0.0659,0.0024,0.0024,0.0024,0.0024,0.0977,1.6138,0.2637,0.0024,0.3052
0.0171,0.0024,0.0049,0.0024,0.0024,0.0269,1.1914,0.2271,0.0024,0.3101
0.022,0.0024,0.0024,0.0024,0.0024,0.0269,1.3892,0.2441,0.0024,0.3418
0.0293,0.0024,0.0024,0.0024,0.0024,0.0269,1.3599,0.3052,0.0024,0.3442
0.0342,0.0024,0.0024,0.0024,0.0024,0.0269,1.355,0.3125,0.0024,0.3418
0.0488,0.0024,0.0024,0.0024,0.0122,0.0586,1.5674,0.3198,0.0024,0.3467
0.022,0.0024,0.0024,0.0024,0.0024,0.0415,1.1914,0.2466,0.0024,0.3296
0.0122,0.0024,0.0024,0.0024,0.0024,0.0195,1.0889,0.1636,0.0024,0.3101
0.0122,0.0024,0.0024,0.0024,0.0024,0.0293,1.1157,0.2393,0.0024,0.3296
0.0171,0.0024,0.0024,0.0024,0.0024,0.0244,1.0498,0.2661,0.0024,0.3149
0.022,0.0024,0.0024,0.0024,0.0024,0.0244,1.0986,0.2686,0.0024,0.3394
0.0122,0.0024,0.0024,0.0024,0.0049,0.0171,1.2939,0.1978,0.0024,0.3491
0.0195,0.0024,0.0024,0.0024,0.0024,0.0171,1.2207,0.2222,0.0024,0.3247
0.0024,0.0024,0.0024,0.0024,0.0049,0.0073,0.8179,0.2051,0.0024,0.3418
0.0024,0.0024,0.0049,0.0024,0.0024,0.0146,0.647,0.2002,0.0024,0.3784
0.0049,0.0024,0.0024,0.0024,0.0049,0.0049,0.6738,0.1929,0.0024,0.3369
0.0024,0.0024,0.0024,0.0024,0.0024,0.0024,0.564,0.0928,0.0024,0.3271
0.0024,0.0024,0.0024,0.0024,0.0024,0.0024,0.8057,0.1782,0.0024,0.3369
0.0024,0.0024,0.0024,0.0024,0.0024,0.0024,1.0376,0.1514,0.0024,0.3198
0.0024,0.0024,0.0024,0.0024,0.0024,0.0024,0.5933,0.1563,0.0024,0.3198
0.0024,0.0024,0.0024,0.0024,0.0024,0.0049,0.6592,0.1489,0.0024,0.3247
0.0024,0.0024,0.0024,0.0024,0.0024,0.0024,0.5908,0.1318,0.0024,0.3345
0.0024,0.0024,0.0024,0.0024,0.0024,0.0049,0.9448,0.1538,0.0024,0.3442
0.0049,0.0024,0.0024,0.0024,0.0024,0.0073,0.6421,0.1416,0.0024,0.3516
0.0024,0.0024,0.0024,0.0024,0.0049,0.0269,0.6714,0.1367,0.0024,0.3809
0.0024,0.0024,0.0024,0.0049,0.0024,0.0146,0.5737,0.1099,0.0024,0.3418
0.0024,0.0024,0.0024,0.0024,0.0024,0.0171,0.7739,0.1343,0.0024,0.332
0.0024,0.0024,0.0024,0.0024,0.0024,0.022,1.0742,0.1392,0.0024,0.3223
0.0049,0.0024,0.0024,0.0024,0.0024,0.0415,1.4551,0.1611,0.0024,0.3247
0.1074,0.0024,0.0024,0.0024,0.0049,0.0977,1.9312,0.1709,0.0024,0.3101
0.188,0.0024,0.0024,0.0024,0.0024,0.0854,1.9824,0.1758,0.0024,0.3247
0.0952,0.0024,0.0024,0.0024,0.0024,0.0732,0.835,0.2856,0.0024,0.3027
0.0732,0.0024,0.0024,0.0024,0.0049,0.0732,0.6079,0.271,0.0024,0.3101
0.0659,0.0024,0.0024,0.0024,0.0024,0.0684,0.5078,0.2759,0.0024,0.3247
0.022,0.0024,0.0024,0.0024,0.0024,0.0464,0.3613,0.2368,0.0024,0.3638
0.0024,0.0024,0.0024,0.0024,0.0024,0.0415,0.3687,0.1831,0.0024,0.3418
0.0024,0.0024,0.0024,0.0024,0.0049,0.0391,0.3589,0.1709,0.0024,0.3589
0.0049,0.0024,0.0024,0.0024,0.0024,0.0024,0.0952,0.1758,0.0024,0.3564
0.0024,0.0024,0.0024,0.0024,0.0024,0.0024,0.1245,0.1904,0.0024,0.3467
0.0073,0.0024,0.0024,0.0049,0.0024,0.0049,0.1685,0.2051,0.0024,0.3369
0.0024,0.0024,0.0024,0.0024,0.0024,0.0024,0.5493,0.188,0.0024,0.3491
0.0049,0.0024,0.0049,0.0024,0.0024,0.0024,0.5273,0.2075,0.0024,0.3418
0.0098,0.0024,0.0024,0.0024,0.0024,0.0024,0.4883,0.21,0.0024,0.3369
0.0073,0.0024,0.0024,0.0024,0.0024,0.0024,0.4541,0.1953,0.0024,0.3296
0.0024,0.0024,0.0024,0.0024,0.0024,0.0024,0.5151,0.1782,0.0024,0.3271
0.0024,0.0024,0.0024,0.0024,0.0024,0.0049,0.5713,0.1929,0.0024,0.3467
0.0049,0.0024,0.0024,0.0024,0.0024,0.0122,0.5835,0.1855,0.0024,0.3589
0.0024,0.0024,0.0024,0.0024,0.0024,0.0073,0.6201,0.1636,0.0024,0.3394
0.0024,0.0024,0.0024,0.0024,0.0024,0.0049,0.7471,0.1294,0.0024,0.3418
0.0024,0.0024,0.0024,0.0024,0.0024,0.0024,0.1587,0.1538,0.0024,0.3271
0.0024,0.0024,0.0024,0.0024,0.0024,0.0024,0.1514,0.1465,0.0024,0.3467
0.0024,0.0024,0.0024,0.0024,0.0024,0.0024,0.105,0.1172,0.0024,0.3442
0.0024,0.0024,0.0024,0.0024,0.0024,0.0024,0.083,0.0928,0.0024,0.3491
0.0073,0.0024,0.0024,0.0049,0.0024,0.0049,0.1123,0.166,0.0024,0.3638
0.0024,0.0024,0.0024,0.0024,0.0024,0.0024,0.0537,0.1196,0.0024,0.3198
0.0024,0.0024,0.0024,0.0024,0.0024,0.0024,0.0415,0.1196,0.0024,0.3149
0.0024,0.0024,0.0024,0.0024,0.0024,0.0024,0.1538,0.1392,0.0024,0.3345
0.0024,0.0024,0.0024,0.0024,0.0024,0.0024,0.1074,0.1123,0.0024,0.3296
0.0024,0.0024,0.0024,0.0024,0.0024,0.0024,0.1001,0.1416,0.0024,0.3198
0.0024,0.0024,0.0024,0.0024,0.0024,0.0024,0.1196,0.1343,0.0024,0.3369
0.0073,0.0024,0.0024,0.0024,0.0024,0.0024,0.1245,0.1953,0.0024,0.3369
0.0024,0.0024,0.0024,0.0024,0.0024,0.0024,0.0732,0.1416,0.0024,0.3467
0.0024,0.0024,0.0024,0.0024,0.0024,0.0024,0.061,0.1196,0.0024,0.3296
0.0024,0.0024,0.0024,0.0024,0.0024,0.0024,0.0806,0.1563,0.0024,0.3369
0.0024,0.0024,0.0024,0.0024,0.0024,0.0024,0.0806,0.1636,0.0024,0.3418
0.0024,0.0024,0.0024,0.0024,0.0024,0.0024,0.0684,0.1099,0.0024,0.2905
0.0146,0.0024,0.0024,0.0024,0.0024,0.0024,0.1172,0.1758,0.0024,0.2856
0.0122,0.0024,0.0049,0.0024,0.0024,0.0122,0.5273,0.1636,0.0024,0.2856
0.0146,0.0024,0.0024,0.0024,0.0024,0.0122,0.5273,0.1636,0.0024,0.2832
0.0073,0.0024,0.0024,0.0024,0.0024,0.0024,0.3198,0.1782,0.0024,0.2856
0.0073,0.0024,0.0024,0.0024,0.0024,0.0024,0.3418,0.1904,0.0024,0.2832
0.0195,0.0024,0.0024,0.0024,0.0024,0.0049,0.4492,0.2051,0.0024,0.2881
0.0024,0.0024,0.0024,0.0024,0.0024,0.0293,0.3027,0.1489,0.0024,0.2881
0.0073,0.0024,0.0024,0.0024,0.0024,0.022,0.2515,0.1758,0.0024,0.293
0.0024,0.0024,0.0024,0.0024,0.0024,0.0049,0.3198,0.1392,0.0024,0.2637
0.0073,0.0024,0.0024,0.0024,0.0024,0.0146,0.2466,0.1709,0.0024,0.2759
0.0024,0.0024,0.0024,0.0024,0.0024,0.0122,0.271,0.1782,0.0024,0.2832
0.0024,0.0024,0.0024,0.0024,0.0049,0.0024,0.1245,0.144,0.0024,0.3101
0.0024,0.0024,0.0024,0.0024,0.0024,0.0024,0.0732,0.1172,0.0024,0.2783
0.0024,0.0024,0.0024,0.0024,0.0024,0.0024,0.0684,0.0903,0.0024,0.2734
0.0024,0.0024,0.0024,0.0024,0.0049,0.0024,0.0952,0.105,0.0024,0.3101
0.0024,0.0024,0.0024,0.0024,0.0024,0.0024,0.0903,0.1245,0.0024,0.2954
0.0024,0.0024,0.0024,0.0024,0.0024,0.0024,0.1221,0.144,0.0024,0.3052
0.0024,0.0024,0.0024,0.0024,0.0024,0.0024,0.1025,0.1514,0.0024,0.293
0.0073,0.0024,0.0024,0.0024,0.0024,0.0049,0.0977,0.1807,0.0024,0.3027
0.0024,0.0024,0.0024,0.0024,0.0024,0.0024,0.0732,0.1538,0.0024,0.2979
0.0024,0.0024,0.0024,0.0024,0.0024,0.0024,0.0562,0.1538,0.0024,0.3027
0.0024,0.0024,0.0024,0.0024,0.0024,0.0049,0.0464,0.1318,0.0024,0.3125
0.0024,0.0024,0.0024,0.0024,0.0024,0.0024,0.0854,0.1538,0.0024,0.3076
0.0024,0.0024,0.0024,0.0024,0.0024,0.0024,0.0757,0.144,0.0024,0.293
0.0024,0.0024,0.0049,0.0024,0.0024,0.0024,0.0757,0.1392,0.0024,0.2856
0.0024,0.0024,0.0024,0.0024,0.0024,0.0024,0.0513,0.1074,0.0024,0.2905
0.0024,0.0024,0.0024,0.0024,0.0024,0.0024,0.0684,0.0806,0.0024,0.293
0.0024,0.0024,0.0024,0.0024,0.0024,0.0024,0.0732,0.1172,0.0024,0.293
0.0024,0.0024,0.0024,0.0024,0.0049,0.0024,0.0488,0.1367,0.0024,0.293
0.0024,0.0024,0.0049,0.0024,0.0049,0.0024,0.0488,0.1245,0.0024,0.3076
0.0024,0.0024,0.0024,0.0024,0.0024,0.0024,0.061,0.1343,0.0024,0.2881
0.0024,0.0024,0.0024,0.0024,0.0049,0.0024,0.0488,0.1221,0.0024,0.2954
0.0024,0.0024,0.0024,0.0024,0.0024,0.0024,0.0342,0.0977,0.0024,0.2905
0.0024,0.0024,0.0024,0.0024,0.0024,0.0024,0.0537,0.1343,0.0024,0.2979
0.0024,0.0024,0.0024,0.0024,0.0024,0.0024,0.0562,0.1318,0.0024,0.3003
0.0024,0.0024,0.0024,0.0024,0.0024,0.0024,0.0391,0.1099,0.0024,0.3052
0.0024,0.0024,0.0024,0.0024,0.0049,0.0024,0.0366,0.0977,0.0024,0.3076
0.0024,0.0024,0.0024,0.0024,0.0024,0.0024,0.0513,0.1367,0.0024,0.2954
0.0024,0.0024,0.0024,0.0024,0.0049,0.0024,0.0757,0.1172,0.0024,0.271
0.0024,0.0024,0.0024,0.0024,0.0024,0.0024,0.0659,0.1099,0.0024,0.2637
0.0024,0.0024,0.0024,0.0049,0.0024,0.0024,0.0464,0.1099,0.0024,0.3076
0.0049,0.0024,0.0024,0.0024,0.0024,0.0024,0.0537,0.144,0.0024,0.3003
0.0024,0.0024,0.0024,0.0024,0.0024,0.0024,0.0439,0.0977,0.0024,0.2783
0.0024,0.0024,0.0024,0.0024,0.0024,0.0024,0.0439,0.083,0.0024,0.2661
0.0024,0.0024,0.0024,0.0024,0.0024,0.0024,0.0464,0.0854,0.0024,0.2734
0.0024,0.0024,0.0024,0.0024,0.0024,0.0024,0.0562,0.0977,0.0024,0.2637
0.0024,0.0024,0.0024,0.0024,0.0024,0.0024,0.0391,0.1099,0.0024,0.2808
0.0024,0.0024,0.0024,0.0024,0.0024,0.0024,0.0635,0.1367,0.0024,0.2734
0.0024,0.0024,0.0024,0.0024,0.0024,0.0024,0.0757,0.1538,0.0024,0.2759
0.0024,0.0024,0.0024,0.0024,0.0024,0.0024,0.0732,0.1318,0.0024,0.3101
0.0024,0.0024,0.0024,0.0024,0.0024,0.0024,0.0757,0.1123,0.0024,0.3223
0.0024,0.0024,0.0024,0.0024,0.0024,0.0024,0.0562,0.1489,0.0024,0.2954
0.0024,0.0024,0.0024,0.0024,0.0049,0.0024,0.0488,0.1563,0.0024,0.2808
0.0024,0.0024,0.0024,0.0024,0.0024,0.0024,0.0513,0.0952,0.0024,0.3027
0.0024,0.0024,0.0024,0.0024,0.0024,0.0024,0.0708,0.1294,0.0024,0.3052
0.0024,0.0024,0.0024,0.0024,0.0024,0.0024,0.1685,0.1221,0.0024,0.3125
0.0024,0.0024,0.0024,0.0024,0.0024,0.0146,0.2515,0.1221,0.0024,0.3223
0.0024,0.0024,0.0024,0.0024,0.0024,0.0098,0.1953,0.1196,0.0024,0.2881
0.0024,0.0024,0.0024,0.0024,0.0024,0.0024,0.0732,0.1074,0.0024,0.2979
0.0024,0.0024,0.0024,0.0024,0.0024,0.0024,0.0635,0.1099,0.0024,0.2954
0.0024,0.0024,0.0024,0.0024,0.0024,0.0024,0.0708,0.1245,0.0024,0.2856
0.0024,0.0024,0.0024,0.0024,0.0024,0.0024,0.0732,0.1221,0.0024,0.2783
0.0024,0.0024,0.0024,0.0024,0.0024,0.0024,0.0537,0.1196,0.0024,0.3271
0.0024,0.0024,0.0024,0.0024,0.0024,0.0024,0.0439,0.1025,0.0024,0.2856
0.0024,0.0024,0.0024,0.0024,0.0024,0.0024,0.0391,0.1392,0.0024,0.3027
0.0024,0.0024,0.0024,0.0024,0.0024,0.0098,0.0708,0.1343,0.0024,0.2808
0.0024,0.0024,0.0024,0.0024,0.0024,0.0073,0.0244,0.0903,0.0024,0.293
0.0024,0.0024,0.0024,0.0024,0.0024,0.0073,0.0269,0.0879,0.0024,0.2954
0.0024,0.0024,0.0024,0.0024,0.0024,0.0024,0.0586,0.0903,0.0024,0.3125
0.0024,0.0024,0.0024,0.0024,0.0024,0.0024,0.0586,0.1147,0.0024,0.2979
0.0024,0.0024,0.0024,0.0024,0.0024,0.0024,0.0488,0.144,0.0024,0.2954
0.0024,0.0024,0.0024,0.0024,0.0024,0.0024,0.0415,0.0952,0.0024,0.3027
0.0024,0.0024,0.0024,0.0024,0.0024,0.0024,0.0439,0.0879,0.0024,0.3076
0.0024,0.0024,0.0024,0.0024,0.0024,0.0024,0.0684,0.1196,0.0024,0.3076
0.0024,0.0024,0.0024,0.0024,0.0024,0.0024,0.0488,0.1172,0.0024,0.2954
0.0024,0.0024,0.0024,0.0024,0.0049,0.0024,0.0415,0.1245,0.0024,0.2783
0.0024,0.0024,0.0024,0.0024,0.0024,0.0024,0.0366,0.1074,0.0024,0.3125
0.0024,0.0024,0.0024,0.0024,0.0024,0.0024,0.0293,0.1074,0.0024,0.3149
0.0024,0.0024,0.0024,0.0024,0.0024,0.0024,0.0366,0.1123,0.0024,0.3101
0.0024,0.0024,0.0024,0.0024,0.0024,0.0024,0.022,0.083,0.0024,0.2905
0.0024,0.0024,0.0024,0.0024,0.0024,0.0024,0.0439,0.1123,0.0024,0.3101
0.0024,0.0024,0.0024,0.0024,0.0024,0.0024,0.0708,0.1367,0.0024,0.3027
0.0024,0.0024,0.0024,0.0024,0.0024,0.0024,0.0684,0.1147,0.0024,0.3076
0.0024,0.0024,0.0024,0.0024,0.0024,0.0024,0.0732,0.1245,0.0024,0.3076
0.0024,0.0024,0.0024,0.0024,0.0024,0.0024,0.1318,0.1099,0.0024,0.3003
0.0024,0.0024,0.0024,0.0024,0.0024,0.0024,0.0854,0.1123,0.0024,0.2734
0.0024,0.0024,0.0024,0.0024,0.0024,0.0024,0.0879,0.1245,0.0024,0.2759
0.0024,0.0024,0.0024,0.0024,0.0024,0.0024,0.0781,0.1196,0.0024,0.3149
0.0024,0.0024,0.0024,0.0024,0.0024,0.0024,0.0684,0.1147,0.0024,0.2954
0.0024,0.0024,0.0024,0.0024,0.0024,0.0024,0.1904,0.1587,0.0024,0.3052
0.0024,0.0024,0.0024,0.0024,0.0024,0.0049,0.0464,0.1294,0.0024,0.2734
0.0024,0.0024,0.0024,0.0024,0.0024,0.0024,0.0415,0.1245,0.0024,0.2734
0.0024,0.0024,0.0024,0.0024,0.0024,0.0024,0.0342,0.1245,0.0024,0.271
0.0024,0.0024,0.0024,0.0024,0.0024,0.0024,0.0415,0.1025,0.0024,0.2783
0.0024,0.0024,0.0024,0.0024,0.0024,0.0024,0.0317,0.0977,0.0024,0.3027
0.0024,0.0024,0.0024,0.0024,0.0024,0.0024,0.0732,0.1001,0.0024,0.2856
0.0024,0.0024,0.0024,0.0024,0.0024,0.0024,0.0732,0.1001,0.0024,0.2686
0.0049,0.0024,0.0024,0.0024,0.0024,0.0024,0.0635,0.127,0.0024,0.2783
0.0024,0.0024,0.0024,0.0024,0.0024,0.0024,0.0684,0.1367,0.0024,0.2832
0.0024,0.0024,0.0024,0.0024,0.0024,0.0024,0.0586,0.1099,0.0024,0.2661
0.0024,0.0024,0.0024,0.0049,0.0024,0.0024,0.0391,0.0952,0.0024,0.2515
0.0024,0.0024,0.0024,0.0024,0.0024,0.0024,0.0391,0.083,0.0024,0.271
0.0024,0.0024,0.0049,0.0024,0.0024,0.0024,0.0366,0.0854,0.0024,0.2759
0.0024,0.0024,0.0024,0.0024,0.0024,0.0024,0.0342,0.0854,0.0024,0.271
0.0024,0.0024,0.0024,0.0024,0.0024,0.0024,0.0464,0.1172,0.0024,0.2637
0.0024,0.0024,0.0024,0.0024,0.0024,0.0024,0.0659,0.1318,0.0024,0.2686
0.0024,0.0024,0.0024,0.0024,0.0024,0.0024,0.0684,0.1465,0.0024,0.2759
0.0024,0.0024,0.0024,0.0024,0.0024,0.0024,0.0146,0.083,0.0024,0.2979
0.0024,0.0024,0.0024,0.0024,0.0024,0.0024,0.0708,0.105,0.0024,0.2759
0.0024,0.0024,0.0049,0.0024,0.0024,0.0024,0.0269,0.1001,0.0024,0.2734
0.0024,0.0024,0.0024,0.0024,0.0049,0.0024,0.0024,0.061,0.0024,0.2832
0.0024,0.0024,0.0049,0.0024,0.0024,0.0024,0.0122,0.0781,0.0024,0.2905
0.0024,0.0024,0.0024,0.0024,0.0024,0.0024,0.0317,0.1001,0.0024,0.2783
0.0024,0.0024,0.0024,0.0024,0.0024,0.0024,0.0244,0.0879,0.0024,0.2832
0.0024,0.0024,0.0024,0.0024,0.0049,0.0024,0.0415,0.0977,0.0024,0.2783
0.0024,0.0024,0.0024,0.0024,0.0024,0.0024,0.0269,0.0879,0.0024,0.2808
0.0024,0.0024,0.0024,0.0024,0.0024,0.0024,0.0342,0.0732,0.0024,0.2783
0.0024,0.0024,0.0024,0.0024,0.0024,0.0024,0.022,0.0732,0.0024,0.2759
0.0024,0.0024,0.0024,0.0024,0.0024,0.0024,0.0122,0.0537,0.0024,0.271
0.0024,0.0024,0.0024,0.0024,0.0024,0.0024,0.0171,0.0513,0.0024,0.2759
0.0073,0.0024,0.0024,0.0024,0.0024,0.0024,0.0342,0.1245,0.0024,0.2515
0.0024,0.0024,0.0024,0.0024,0.0024,0.0024,0.0488,0.1221,0.0024,0.2515
0.0024,0.0024,0.0049,0.0024,0.0024,0.0024,0.0366,0.1147,0.0024,0.2856
0.0024,0.0024,0.0024,0.0024,0.0024,0.0024,0.0342,0.1147,0.0024,0.2808
0.0024,0.0024,0.0024,0.0024,0.0024,0.0024,0.0391,0.0952,0.0024,0.2954
0.0024,0.0024,0.0024,0.0024,0.0024,0.0024,0.0464,0.0903,0.0024,0.2954
0.0024,0.0024,0.0024,0.0024,0.0024,0.0024,0.0122,0.1367,0.0024,0.3101
0.0024,0.0024,0.0024,0.0024,0.0024,0.0024,0.0146,0.1294,0.0024,0.2832
0.0024,0.0024,0.0024,0.0024,0.0049,0.0024,0.0195,0.1343,0.0024,0.2832
0.0024,0.0024,0.0024,0.0024,0.0024,0.0024,0.0244,0.1074,0.0024,0.2783
0.0024,0.0024,0.0024,0.0024,0.0024,0.0024,0.0439,0.1147,0.0024,0.2783
0.0024,0.0024,0.0024,0.0024,0.0024,0.0024,0.0244,0.1294,0.0024,0.293
0.0024,0.0024,0.0024,0.0024,0.0024,0.0024,0.0293,0.127,0.0024,0.2856
0.0024,0.0024,0.0024,0.0024,0.0024,0.0024,0.0366,0.105,0.0024,0.2856
0.0024,0.0024,0.0024,0.0024,0.0024,0.0024,0.0732,0.1465,0.0024,0.2954
0.0024,0.0024,0.0024,0.0024,0.0024,0.0024,0.0439,0.1147,0.0024,0.2808
0.0024,0.0024,0.0024,0.0024,0.0024,0.0024,0.0464,0.0952,0.0024,0.2759
0.0024,0.0024,0.0024,0.0024,0.0024,0.0024,0.0391,0.1001,0.0024,0.2783
0.0024,0.0024,0.0024,0.0024,0.0024,0.0024,0.0269,0.0977,0.0024,0.293
0.0024,0.0024,0.0024,0.0024,0.0024,0.0024,0.0293,0.0928,0.0024,0.2856
0.0024,0.0024,0.0024,0.0024,0.0024,0.0024,0.0317,0.0806,0.0024,0.2832
0.0024,0.0024,0.0024,0.0024,0.0024,0.0024,0.0317,0.0903,0.0024,0.2808
0.0024,0.0024,0.0024,0.0024,0.0024,0.0024,0.0537,0.0928,0.0024,0.3149
0.0024,0.0024,0.0024,0.0024,0.0024,0.0024,0.0586,0.105,0.0024,0.2905
0.0024,0.0024,0.0024,0.0024,0.0024,0.0024,0.0513,0.1123,0.0024,0.2979
0.0024,0.0024,0.0024,0.0024,0.0024,0.0024,0.4224,0.1489,0.0024,0.2686
0.0024,0.0024,0.0024,0.0024,0.0024,0.0122,0.5933,0.1489,0.0024,0.2881
0.0073,0.0024,0.0024,0.0024,0.0024,0.0098,0.3784,0.1782,0.0024,0.3003
0.0024,0.0024,0.0024,0.0024,0.0024,0.0171,0.2954,0.1953,0.0024,0.3125
0.0098,0.0024,0.0024,0.0024,0.0024,0.0269,0.2783,0.1978,0.0024,0.2832
0.0098,0.0024,0.0049,0.0024,0.0024,0.0244,0.3003,0.1831,0.0024,0.2539
0.0122,0.0024,0.0024,0.0049,0.0024,0.0269,0.2783,0.1855,0.0024,0.249
0.0098,0.0024,0.0049,0.0024,0.0024,0.0464,0.188,0.1611,0.0024,0.2783
0.0049,0.0024,0.0024,0.0024,0.0024,0.022,0.0781,0.1343,0.0024,0.3003
0.0024,0.0024,0.0024,0.0024,0.0024,0.0195,0.0586,0.1172,0.0024,0.2881
