0.0024,0.0024,0.0024,0.0024,0.0024,0.0024,0.0464,0.1196,0.0024,0.2954
0.0024,0.0024,0.0024,0.0024,0.0024,0.0024,0.0586,0.1294,0.0024,0.2734
0.0024,0.0024,0.0024,0.0024,0.0024,0.0024,0.0537,0.1221,0.0024,0.2637
0.0024,0.0024,0.0024,0.0024,0.0024,0.0146,0.0342,0.1074,0.0024,0.2808
0.0024,0.0024,0.0024,0.0024,0.0024,0.0098,0.0366,0.0977,0.0024,0.271
0.0024,0.0024,0.0024,0.0024,0.0049,0.0024,0.0244,0.0952,0.0024,0.271
0.0024,0.0024,0.0024,0.0024,0.0049,0.0073,0.0439,0.1318,0.0024,0.2783
0.0024,0.0024,0.0024,0.0024,0.0024,0.0024,0.0269,0.0806,0.0024,0.3101
0.0024,0.0024,0.0024,0.0024,0.0024,0.0024,0.0317,0.0903,0.0024,0.3101
0.0024,0.0024,0.0024,0.0024,0.0024,0.0024,0.0098,0.0854,0.0024,0.3149
0.0024,0.0024,0.0024,0.0024,0.0024,0.0024,0.0146,0.0781,0.0024,0.2539
0.0024,0.0024,0.0024,0.0024,0.0024,0.0024,0.0342,0.0952,0.0024,0.271
0.0024,0.0024,0.0024,0.0024,0.0024,0.0024,0.0146,0.144,0.0024,0.2783
0.0024,0.0024,0.0024,0.0024,0.0024,0.0195,0.0293,0.1392,0.0024,0.2808
0.0342,0.0024,0.0024,0.0024,0.0024,0.0024,0.0293,0.1538,0.0024,0.2979
0.0513,0.0024,0.0024,0.0024,0.0024,0.0024,0.0293,0.1587,0.0024,0.2954
0.0024,0.0024,0.0024,0.0024,0.0024,0.0024,0.0269,0.166,0.0024,0.2881
0.0024,0.0024,0.0049,0.0024,0.0024,0.0024,0.0293,0.1196,0.0024,0.2832
0.0024,0.0024,0.0024,0.0024,0.0024,0.0024,0.0122,0.1245,0.0024,0.2686
0.0024,0.0024,0.0024,0.0024,0.0024,0.0049,0.0635,0.1392,0.0024,0.3027
0.0024,0.0024,0.0024,0.0024,0.0024,0.0024,0.0586,0.1196,0.0024,0.2808
0.0024,0.0024,0.0024,0.0024,0.0024,0.0024,0.0537,0.1025,0.0024,0.2832
0.0024,0.0024,0.0024,0.0024,0.0024,0.0024,0.0391,0.1147,0.0024,0.293
0.0049,0.0024,0.0024,0.0024,0.0024,0.0024,0.0513,0.1538,0.0024,0.2832
0.0024,0.0024,0.0024,0.0024,0.0024,0.0024,0.0537,0.1392,0.0024,0.3125
0.0024,0.0024,0.0024,0.0024,0.0024,0.0024,0.0488,0.1294,0.0024,0.2979
0.0024,0.0024,0.0024,0.0024,0.0024,0.0024,0.0464,0.1318,0.0024,0.2856
0.0024,0.0024,0.0024,0.0024,0.0024,0.0024,0.0366,0.1294,0.0024,0.2979
0.0024,0.0024,0.0024,0.0024,0.0024,0.0024,0.0439,0.1245,0.0024,0.2832
0.0024,0.0024,0.0024,0.0024,0.0024,0.0024,0.0415,0.1245,0.0024,0.2808
0.0024,0.0024,0.0024,0.0024,0.0024,0.0024,0.0391,0.1123,0.0024,0.3076
0.0024,0.0024,0.0024,0.0024,0.0024,0.0024,0.0439,0.0952,0.0024,0.2734
0.0024,0.0024,0.0024,0.0024,0.0024,0.0024,0.0391,0.1172,0.0024,0.2808
0.0024,0.0024,0.0024,0.0024,0.0024,0.0024,0.0195,0.1099,0.0024,0.2783
0.0049,0.0024,0.0024,0.0024,0.0024,0.0024,0.0879,0.1367,0.0024,0.3101
0.0024,0.0024,0.0024,0.0024,0.0024,0.0024,0.0513,0.1318,0.0024,0.2759
0.0024,0.0024,0.0024,0.0024,0.0024,0.0024,0.0854,0.1709,0.0024,0.293
0.0024,0.0024,0.0024,0.0024,0.0024,0.0024,0.0659,0.144,0.0024,0.2808
0.0024,0.0024,0.0049,0.0024,0.0024,0.0024,0.0659,0.1782,0.0024,0.2808
0.0024,0.0024,0.0024,0.0024,0.0024,0.0024,0.0342,0.1147,0.0024,0.2661
0.0024,0.0024,0.0024,0.0024,0.0024,0.0024,0.0562,0.1245,0.0024,0.293
0.0024,0.0024,0.0024,0.0024,0.0024,0.0024,0.0586,0.1294,0.0024,0.2832
0.0024,0.0024,0.0024,0.0024,0.0024,0.0024,0.0244,0.105,0.0024,0.3027
0.0024,0.0024,0.0024,0.0024,0.0024,0.0024,0.0146,0.1123,0.0024,0.293
0.0024,0.0024,0.0024,0.0024,0.0024,0.0024,0.0146,0.1123,0.0024,0.2808
0.0024,0.0024,0.0024,0.0024,0.0024,0.0024,0.0635,0.127,0.0024,0.2734
0.0024,0.0024,0.0024,0.0024,0.0024,0.0024,0.0537,0.0928,0.0024,0.2759
0.0024,0.0024,0.0024,0.0024,0.0024,0.0024,0.0439,0.1025,0.0024,0.293
0.0024,0.0024,0.0024,0.0024,0.0024,0.0024,0.0366,0.1099,0.0024,0.2881
0.0024,0.0024,0.0024,0.0024,0.0024,0.0024,0.0659,0.1245,0.0024,0.2832
0.0244,0.0073,0.0024,0.0024,0.0024,0.0415,1.438,0.2417,0.0024,0.3101
0.0195,0.0024,0.0024,0.0024,0.0024,0.0366,1.4258,0.2515,0.0024,0.3052
0.022,0.0024,0.0024,0.0024,0.0024,0.0635,1.8555,0.249,0.0024,0.2905
0.0366,0.0049,0.0024,0.0024,0.0049,0.0928,1.77,0.2734,0.0024,0.2661
0.0293,0.0024,0.0024,0.0024,0.0024,0.0854,1.7993,0.2515,0.0024,0.2612
0.0342,0.0073,0.0024,0.0024,0.0073,0.1025,2.627,0.2441,0.0024,0.271
0.0366,0.0024,0.0024,0.0024,0.0049,0.105,2.4976,0.2686,0.0024,0.271
0.0269,0.0024,0.0024,0.0024,0.0049,0.0708,1.7944,0.2466,0.0024,0.3101
0.0244,0.0049,0.0049,0.0024,0.0024,0.0708,1.8311,0.2515,0.0024,0.2954
0.0195,0.0024,0.0024,0.0024,0.0024,0.0659,1.8652,0.2319,0.0024,0.2686
0.0122,0.0024,0.0024,0.0024,0.0024,0.0488,1.3721,0.2051,0.0024,0.2539
0.0024,0.0024,0.0024,0.0024,0.0049,0.0439,1.5112,0.1953,0.0024,0.2441
0.0024,0.0024,0.0024,0.0024,0.0024,0.0342,1.2036,0.1636,0.0024,0.2515
0.0024,0.0024,0.0024,0.0024,0.0024,0.0391,1.2329,0.1611,0.0024,0.2563
0.0049,0.0024,0.0024,0.0024,0.0024,0.0342,1.2231,0.2051,0.0024,0.2661
0.0195,0.0024,0.0024,0.0024,0.0024,0.0635,0.9937,0.2051,0.0024,0.2832
0.0195,0.0024,0.0024,0.0024,0.0024,0.0732,1.2476,0.2319,0.0024,0.2759
0.0073,0.0024,0.0024,0.0024,0.0024,0.0195,0.5249,0.1978,0.0024,0.2759
0.0098,0.0024,0.0024,0.0024,0.0024,0.0146,0.4834,0.1855,0.0024,0.2832
0.0122,0.0024,0.0024,0.0024,0.0024,0.0195,0.5396,0.1855,0.0024,0.2832
0.0098,0.0024,0.0024,0.0024,0.0024,0.022,0.5469,0.1782,0.0024,0.2783
0.0073,0.0024,0.0024,0.0024,0.0024,0.0098,0.4956,0.1929,0.0024,0.2905
0.0049,0.0024,0.0024,0.0024,0.0024,0.0171,0.6128,0.1978,0.0024,0.2759
0.0024,0.0024,0.0024,0.0024,0.0024,0.0269,0.6299,0.1587,0.0024,0.271
0.0024,0.0024,0.0024,0.0024,0.0024,0.022,0.6885,0.144,0.0024,0.2832
0.0024,0.0024,0.0024,0.0024,0.0024,0.0024,0.376,0.1392,0.0024,0.3052
0.0049,0.0024,0.0024,0.0024,0.0024,0.0024,0.4565,0.1563,0.0024,0.293
0.0049,0.0024,0.0024,0.0024,0.0024,0.0098,0.4834,0.1636,0.0024,0.2808
0.0024,0.0024,0.0024,0.0024,0.0024,0.0244,0.5029,0.1392,0.0024,0.271
0.0171,0.0024,0.0024,0.0024,0.0024,0.0195,0.4102,0.2148,0.0024,0.2783
0.0073,0.0024,0.0024,0.0024,0.0024,0.0415,0.3857,0.1807,0.0024,0.2734
0.0049,0.0024,0.0024,0.0024,0.0024,0.0317,0.3101,0.1709,0.0024,0.2661
0.0024,0.0024,0.0024,0.0024,0.0024,0.0244,0.2197,0.144,0.0024,0.2881
0.0024,0.0024,0.0024,0.0024,0.0024,0.0415,0.1953,0.105,0.0024,0.271
0.0024,0.0024,0.0024,0.0024,0.0024,0.0269,0.3589,0.1465,0.0024,0.293
0.0049,0.0024,0.0024,0.0024,0.0024,0.0073,0.2832,0.1392,0.0024,0.3052
0.0073,0.0024,0.0024,0.0024,0.0024,0.0293,0.3052,0.1318,0.0024,0.3027
0.0049,0.0024,0.0024,0.0024,0.0024,0.0391,0.2466,0.1514,0.0024,0.2808
0.0024,0.0024,0.0024,0.0024,0.0024,0.0195,0.2344,0.1172,0.0024,0.2686
0.0049,0.0024,0.0024,0.0024,0.0024,0.0269,0.3003,0.1489,0.0024,0.2734
0.0073,0.0024,0.0024,0.0024,0.0024,0.0366,0.2344,0.1099,0.0024,0.2954
0.0024,0.0024,0.0024,0.0024,0.0024,0.0146,0.1709,0.0952,0.0024,0.2856
0.0024,0.0024,0.0049,0.0024,0.0024,0.0171,0.1685,0.0952,0.0024,0.2856
0.0024,0.0024,0.0024,0.0024,0.0024,0.0244,0.437,0.1416,0.0024,0.293
0.0024,0.0024,0.0024,0.0024,0.0024,0.0269,0.542,0.1343,0.0024,0.3027
0.0024,0.0024,0.0024,0.0024,0.0024,0.0195,0.2734,0.1367,0.0024,0.3027
0.0049,0.0024,0.0024,0.0024,0.0049,0.0317,0.6055,0.1489,0.0024,0.3003
0.0024,0.0024,0.0024,0.0024,0.0024,0.0317,0.7544,0.1465,0.0024,0.3027
0.0049,0.0024,0.0024,0.0024,0.0024,0.0342,0.8447,0.1538,0.0024,0.293
0.0073,0.0024,0.0024,0.0024,0.0024,0.0317,0.835,0.1538,0.0024,0.2734
0.0024,0.0024,0.0024,0.0024,0.0024,0.0464,1.0425,0.1416,0.0024,0.2734
0.0024,0.0024,0.0024,0.0024,0.0024,0.0464,0.9351,0.1416,0.0024,0.2734
0.0073,0.0024,0.0024,0.0024,0.0024,0.0269,0.5688,0.1367,0.0024,0.2588
0.0098,0.0024,0.0024,0.0024,0.0049,0.0293,0.5322,0.1538,0.0024,0.2539
0.0024,0.0024,0.0024,0.0024,0.0024,0.022,0.4175,0.1367,0.0024,0.271
0.0024,0.0024,0.0024,0.0024,0.0024,0.0195,0.3735,0.127,0.0024,0.2686
0.0024,0.0024,0.0049,0.0024,0.0024,0.0244,0.415,0.1245,0.0024,0.2734
0.0024,0.0024,0.0024,0.0024,0.0024,0.0366,0.4346,0.127,0.0024,0.2808
0.0024,0.0024,0.0024,0.0024,0.0024,0.0537,0.3857,0.1318,0.0024,0.2759
0.0024,0.0024,0.0024,0.0024,0.0024,0.0342,0.3247,0.1538,0.0024,0.2832
0.0195,0.0024,0.0024,0.0024,0.0024,0.061,0.4688,0.2026,0.0024,0.2588
0.0024,0.0024,0.0024,0.0024,0.0024,0.0537,0.3125,0.1563,0.0024,0.2808
0.0024,0.0024,0.0024,0.0024,0.0024,0.0342,0.2295,0.1514,0.0024,0.2979
0.0146,0.0024,0.0024,0.0024,0.0024,0.0415,0.3467,0.1855,0.0024,0.2637
0.0098,0.0024,0.0024,0.0024,0.0024,0.0464,0.7471,0.1831,0.0024,0.271
0.0024,0.0024,0.0024,0.0024,0.0024,0.0415,0.6934,0.1611,0.0024,0.293
0.0049,0.0024,0.0024,0.0024,0.0024,0.0269,0.918,0.1685,0.0024,0.2905
0.0073,0.0024,0.0024,0.0024,0.0024,0.0342,1.0767,0.1782,0.0024,0.2759
0.0098,0.0024,0.0024,0.0024,0.0024,0.0317,1.2109,0.1685,0.0024,0.2734
0.0049,0.0024,0.0024,0.0024,0.0024,0.0293,0.7593,0.1465,0.0024,0.2759
0.0024,0.0024,0.0024,0.0024,0.0024,0.0244,0.5347,0.144,0.0024,0.2783
0.0024,0.0024,0.0049,0.0024,0.0024,0.0342,0.5078,0.1758,0.0024,0.3027
0.0024,0.0024,0.0024,0.0024,0.0024,0.0366,0.5273,0.1709,0.0024,0.3076
0.0024,0.0024,0.0024,0.0024,0.0049,0.0513,0.4932,0.1489,0.0024,0.3198
0.0049,0.0024,0.0024,0.0024,0.0024,0.0391,0.6006,0.1489,0.0024,0.3174
0.0024,0.0024,0.0024,0.0024,0.0024,0.0244,0.874,0.144,0.0024,0.2954
0.0073,0.0024,0.0049,0.0024,0.0024,0.0171,0.9058,0.1831,0.0024,0.2979
0.0049,0.0024,0.0024,0.0024,0.0024,0.0146,0.9448,0.1733,0.0024,0.3003
0.0024,0.0024,0.0024,0.0024,0.0024,0.0439,0.8447,0.1221,0.0024,0.2734
0.0024,0.0024,0.0049,0.0024,0.0024,0.0342,1.3403,0.1221,0.0024,0.2783
0.0024,0.0024,0.0024,0.0024,0.0024,0.0171,1.2646,0.1221,0.0024,0.2979
0.0024,0.0024,0.0024,0.0024,0.0024,0.0146,1.1035,0.1392,0.0024,0.2881
0.0024,0.0024,0.0024,0.0024,0.0024,0.0171,1.2036,0.1611,0.0024,0.2686
0.0024,0.0024,0.0024,0.0024,0.0024,0.0513,1.1816,0.1855,0.0024,0.2612
0.0024,0.0024,0.0024,0.0024,0.0024,0.0488,1.1304,0.1636,0.0024,0.2783
0.0024,0.0024,0.0024,0.0024,0.0024,0.0464,1.1328,0.1538,0.0024,0.2832
0.0024,0.0024,0.0024,0.0024,0.0024,0.0415,1.0327,0.0952,0.0024,0.2637
0.0073,0.0024,0.0024,0.0024,0.0024,0.061,0.9839,0.1367,0.0024,0.2856
0.0024,0.0024,0.0024,0.0024,0.0024,0.0073,0.5396,0.1196,0.0024,0.3076
0.0098,0.0024,0.0024,0.0024,0.0024,0.0439,1.0303,0.1514,0.0024,0.2832
0.0049,0.0024,0.0024,0.0024,0.0024,0.0366,0.8911,0.1294,0.0024,0.2783
0.0049,0.0024,0.0024,0.0024,0.0024,0.0342,0.8618,0.1367,0.0024,0.2783
0.0049,0.0024,0.0024,0.0024,0.0024,0.0293,0.708,0.1465,0.0024,0.2686
0.0049,0.0024,0.0024,0.0024,0.0024,0.0317,0.8496,0.1416,0.0024,0.2612
0.0024,0.0024,0.0024,0.0024,0.0024,0.0073,0.7446,0.1538,0.0024,0.2759
0.0024,0.0024,0.0024,0.0024,0.0024,0.0366,0.6836,0.1538,0.0024,0.3003
0.0122,0.0024,0.0024,0.0024,0.0024,0.0244,0.6104,0.1709,0.0024,0.2515
0.0024,0.0024,0.0024,0.0024,0.0024,0.0269,0.5859,0.1489,0.0024,0.2954
0.0024,0.0024,0.0024,0.0024,0.0024,0.0146,0.5127,0.1538,0.0024,0.2905
0.0024,0.0024,0.0049,0.0024,0.0024,0.0244,0.6641,0.1294,0.0024,0.2759
0.0098,0.0024,0.0024,0.0024,0.0024,0.0293,0.6006,0.1782,0.0024,0.3003
0.0024,0.0024,0.0024,0.0024,0.0024,0.0122,0.6104,0.1538,0.0024,0.2783
0.0049,0.0024,0.0024,0.0024,0.0049,0.0146,0.4785,0.1782,0.0024,0.3125
0.0049,0.0024,0.0024,0.0024,0.0024,0.0244,0.6128,0.1758,0.0024,0.3076
0.0024,0.0024,0.0024,0.0024,0.0024,0.0293,0.5322,0.1172,0.0024,0.2856
0.0195,0.0024,0.0024,0.0024,0.0024,0.0342,0.5811,0.1929,0.0024,0.2783
0.0024,0.0024,0.0024,0.0024,0.0024,0.0171,0.6445,0.1733,0.0024,0.2661
0.0024,0.0024,0.0024,0.0024,0.0024,0.0293,0.7349,0.1465,0.0024,0.2588
0.0024,0.0024,0.0024,0.0024,0.0024,0.0293,0.5322,0.1538,0.0024,0.2832
0.0073,0.0024,0.0024,0.0024,0.0024,0.0366,0.5396,0.1685,0.0024,0.2954
0.0024,0.0024,0.0024,0.0024,0.0024,0.0464,0.5835,0.144,0.0024,0.2954
0.0024,0.0024,0.0024,0.0024,0.0024,0.0391,0.3491,0.1465,0.0024,0.2856
0.0024,0.0024,0.0024,0.0024,0.0024,0.022,0.5493,0.1294,0.0024,0.2905
0.0049,0.0024,0.0024,0.0024,0.0024,0.0269,0.4663,0.1611,0.0024,0.2759
0.0024,0.0024,0.0024,0.0024,0.0024,0.0171,0.3711,0.1294,0.0024,0.2954
0.0024,0.0024,0.0024,0.0024,0.0024,0.0293,0.3296,0.1245,0.0024,0.2979
0.0073,0.0024,0.0024,0.0024,0.0024,0.0293,0.4102,0.1416,0.0024,0.2808
0.0049,0.0024,0.0024,0.0024,0.0024,0.0293,0.3809,0.127,0.0024,0.2954
0.0024,0.0024,0.0024,0.0024,0.0024,0.0244,0.437,0.1392,0.0024,0.2881
0.0024,0.0024,0.0024,0.0024,0.0024,0.0171,0.7959,0.166,0.0024,0.2734
0.0024,0.0024,0.0049,0.0024,0.0024,0.0171,0.5688,0.1685,0.0024,0.2441
0.0049,0.0024,0.0024,0.0024,0.0024,0.0195,0.4492,0.166,0.0024,0.2734
0.0098,0.0024,0.0024,0.0024,0.0024,0.0586,1.0986,0.1831,0.0024,0.2808
0.0146,0.0024,0.0024,0.0024,0.0024,0.0586,1.1182,0.1587,0.0024,0.2661
0.0171,0.0024,0.0024,0.0024,0.0024,0.0586,1.167,0.21,0.0024,0.2881
0.0195,0.0024,0.0024,0.0024,0.0024,0.0586,1.1865,0.2124,0.0024,0.2905
0.0195,0.0024,0.0024,0.0024,0.0024,0.061,1.2451,0.2148,0.0024,0.2808
0.0146,0.0024,0.0024,0.0024,0.0024,0.0537,1.3184,0.2051,0.0024,0.2783
0.0024,0.0024,0.0024,0.0024,0.0024,0.0562,1.5771,0.1685,0.0024,0.2783
0.0098,0.0024,0.0024,0.0024,0.0024,0.0586,1.2378,0.1831,0.0024,0.2759
0.0049,0.0024,0.0024,0.0024,0.0024,0.0415,0.9863,0.2075,0.0024,0.3101
0.0073,0.0024,0.0024,0.0024,0.0024,0.0781,0.7861,0.1831,0.0024,0.2759
0.0024,0.0024,0.0024,0.0024,0.0024,0.0488,0.8716,0.1538,0.0024,0.2783
0.0024,0.0024,0.0024,0.0024,0.0024,0.0269,0.8496,0.1245,0.0024,0.2881
0.0024,0.0024,0.0049,0.0024,0.0024,0.0366,0.9106,0.1318,0.0024,0.2905
0.0024,0.0024,0.0024,0.0024,0.0024,0.0342,0.791,0.1416,0.0024,0.2954
0.0073,0.0024,0.0024,0.0024,0.0024,0.0293,0.835,0.1465,0.0024,0.2905
0.0024,0.0024,0.0024,0.0024,0.0024,0.0195,0.9058,0.1172,0.0024,0.3027
0.0024,0.0024,0.0024,0.0024,0.0024,0.0146,0.8569,0.1147,0.0024,0.2979
0.0024,0.0024,0.0024,0.0024,0.0024,0.0269,0.7959,0.1147,0.0024,0.2686
0.0024,0.0024,0.0024,0.0024,0.0024,0.022,0.979,0.1025,0.0024,0.2686
0.0024,0.0024,0.0024,0.0024,0.0024,0.022,1.0474,0.1245,0.0024,0.2637
0.0024,0.0024,0.0024,0.0024,0.0024,0.0195,0.9399,0.1147,0.0024,0.2563
0.0024,0.0024,0.0024,0.0024,0.0024,0.0342,0.9814,0.1318,0.0024,0.2783
0.022,0.0024,0.0024,0.0024,0.0024,0.0317,0.9863,0.1929,0.0024,0.2612
0.0024,0.0024,0.0024,0.0024,0.0024,0.0073,0.9131,0.1245,0.0024,0.2637
0.0488,0.0024,0.0024,0.0024,0.0024,0.0073,1.1426,0.2271,0.0024,0.2661
0.0122,0.0024,0.0024,0.0024,0.0024,0.0122,1.2354,0.1709,0.0024,0.2979
0.0122,0.0024,0.0024,0.0024,0.0024,0.0098,1.1865,0.1611,0.0024,0.2954
0.0146,0.0024,0.0024,0.0024,0.0024,0.0073,1.1694,0.166,0.0024,0.2881
0.0146,0.0024,0.0024,0.0024,0.0024,0.0024,1.1548,0.1611,0.0024,0.2881
0.0391,0.0024,0.0024,0.0024,0.0024,0.0146,0.9888,0.2026,0.0024,0.2856
0.0049,0.0024,0.0024,0.0024,0.0024,0.0024,1.1938,0.1172,0.0024,0.2686
0.0024,0.0024,0.0024,0.0024,0.0024,0.0024,1.1694,0.1147,0.0024,0.2808
0.0024,0.0024,0.0024,0.0024,0.0024,0.0024,1.1304,0.1147,0.0024,0.2808
0.0024,0.0024,0.0024,0.0024,0.0049,0.0024,0.791,0.1318,0.0024,0.2734
0.0024,0.0024,0.0024,0.0024,0.0049,0.0098,1.1304,0.0977,0.0024,0.2759
0.0024,0.0024,0.0024,0.0024,0.0024,0.0146,1.106,0.1025,0.0024,0.2686
0.0073,0.0024,0.0024,0.0024,0.0024,0.0122,1.0474,0.1099,0.0024,0.2686
0.0122,0.0195,0.0024,0.0024,0.0024,0.0024,0.9033,0.1538,0.0024,0.2905
0.0024,0.0024,0.0024,0.0024,0.0024,0.0024,0.8472,0.1074,0.0024,0.2588
0.0293,0.0293,0.0024,0.0024,0.0024,0.0122,0.7007,0.1587,0.0024,0.2588
0.0195,0.0024,0.0024,0.0024,0.0024,0.0024,0.7837,0.1538,0.0024,0.2856
0.022,0.0244,0.0024,0.0024,0.0024,0.0024,0.4565,0.1416,0.0024,0.3052
0.0342,0.0244,0.0024,0.0024,0.0024,0.0024,0.4712,0.1611,0.0024,0.3027
0.0635,0.0024,0.0024,0.0024,0.0024,0.0024,0.6787,0.2197,0.0024,0.2881
0.0366,0.0024,0.0024,0.0024,0.0024,0.0024,0.542,0.1831,0.0024,0.2759
0.0366,0.0024,0.0024,0.0024,0.0024,0.0024,0.5005,0.1782,0.0024,0.2759
0.0366,0.0024,0.0024,0.0024,0.0024,0.0122,0.6592,0.2295,0.0024,0.2759
0.022,0.0073,0.0049,0.0024,0.0024,0.0073,0.6006,0.2002,0.0024,0.2637
0.0073,0.0024,0.0171,0.0024,0.0024,0.0122,0.3564,0.1563,0.0024,0.2856
0.0073,0.0024,0.0024,0.0024,0.0024,0.0024,0.2783,0.1392,0.0024,0.2954
0.0024,0.0024,0.0024,0.0024,0.0024,0.0049,0.2124,0.1318,0.0024,0.3101
0.0024,0.0024,0.0024,0.0024,0.0024,0.0415,0.6641,0.1904,0.0024,0.2686
0.0049,0.0024,0.0024,0.0024,0.0024,0.0073,0.6226,0.1587,0.0024,0.2539
0.0024,0.0024,0.0024,0.0024,0.0024,0.0244,0.8838,0.1318,0.0024,0.2539
0.0073,0.0024,0.0024,0.0024,0.0024,0.0171,0.8008,0.1538,0.0024,0.2539
0.022,0.0024,0.0024,0.0024,0.0024,0.0464,1.0596,0.166,0.0024,0.2686
0.0122,0.0024,0.0024,0.0024,0.0024,0.0464,1.5967,0.1758,0.0024,0.2856
0.0244,0.0024,0.0024,0.0024,0.0024,0.0635,2.0288,0.2173,0.0024,0.2905
0.0098,0.0024,0.0024,0.0024,0.0024,0.0195,1.2842,0.1709,0.0024,0.2734
0.0073,0.0024,0.0024,0.0024,0.0024,0.0171,1.1279,0.1733,0.0024,0.2734
0.0024,0.0024,0.0024,0.0024,0.0024,0.022,1.1694,0.1392,0.0024,0.2808
0.0049,0.0024,0.0024,0.0024,0.0024,0.0317,1.1792,0.1587,0.0024,0.2881
0.0049,0.0024,0.0024,0.0024,0.0024,0.0415,1.5015,0.1538,0.0024,0.2979
0.0024,0.0024,0.0024,0.0024,0.0024,0.0317,1.3965,0.1465,0.0024,0.2808
0.0024,0.0024,0.0024,0.0024,0.0024,0.0391,1.5186,0.1489,0.0024,0.2588
0.0073,0.0024,0.0024,0.0024,0.0024,0.0171,0.979,0.1611,0.0024,0.2734
0.0098,0.0024,0.0024,0.0024,0.0024,0.0146,0.9888,0.1904,0.0024,0.2905
0.0024,0.0024,0.0024,0.0024,0.0024,0.0073,1.0181,0.1294,0.0024,0.2686
0.0049,0.0024,0.0024,0.0024,0.0024,0.0122,1.1157,0.1758,0.0024,0.2563
0.0122,0.0024,0.0024,0.0024,0.0024,0.0146,1.1304,0.1807,0.0024,0.2466
0.0024,0.0024,0.0024,0.0024,0.0024,0.0171,0.8936,0.1611,0.0024,0.2686
0.0049,0.0024,0.0024,0.0024,0.0024,0.0342,1.1304,0.1733,0.0024,0.271
0.0049,0.0024,0.0024,0.0024,0.0024,0.0317,1.0767,0.1538,0.0024,0.2661
0.0049,0.0024,0.0024,0.0024,0.0024,0.0293,1.0864,0.1587,0.0024,0.271
0.0073,0.0024,0.0024,0.0024,0.0024,0.022,0.9888,0.1685,0.0024,0.2661
0.0024,0.0024,0.0024,0.0024,0.0049,0.0049,0.603,0.1294,0.0024,0.3076
0.0024,0.0024,0.0024,0.0024,0.0024,0.0049,0.4785,0.0977,0.0024,0.2832
0.0024,0.0024,0.0024,0.0024,0.0024,0.0195,0.6055,0.1416,0.0024,0.2686
0.0024,0.0024,0.0024,0.0024,0.0024,0.0024,0.6934,0.1318,0.0024,0.2759
0.0024,0.0024,0.0024,0.0024,0.0024,0.0098,0.6885,0.1929,0.0024,0.2808
0.0073,0.0024,0.0024,0.0024,0.0024,0.0122,0.3076,0.2026,0.0024,0.2686
0.022,0.0024,0.0024,0.0024,0.0024,0.0122,0.4517,0.2051,0.0024,0.2783
0.0024,0.0024,0.0024,0.0024,0.0024,0.0024,0.2148,0.1489,0.0024,0.2466
0.0024,0.0024,0.0024,0.0024,0.0024,0.0024,0.2563,0.1489,0.0024,0.2832
0.0024,0.0024,0.0024,0.0024,0.0024,0.0024,0.2588,0.1416,0.0024,0.2856
0.0024,0.0024,0.0024,0.0024,0.0024,0.0073,0.1538,0.1318,0.0024,0.2954
0.0024,0.0024,0.0024,0.0024,0.0024,0.0098,0.1416,0.1221,0.0024,0.293
0.0073,0.0024,0.0024,0.0024,0.0024,0.0049,0.2148,0.1392,0.0024,0.2563
0.0195,0.0024,0.0024,0.0024,0.0024,0.0073,0.2344,0.2368,0.0024,0.2686
0.0024,0.0024,0.0024,0.0024,0.0024,0.0024,0.1929,0.1611,0.0024,0.2783
0.0024,0.0024,0.0024,0.0024,0.0024,0.0024,0.1465,0.1636,0.0024,0.271
0.0024,0.0024,0.0024,0.0024,0.0024,0.0024,0.1465,0.1416,0.0024,0.2808
0.0024,0.0024,0.0049,0.0024,0.0024,0.0024,0.1196,0.1514,0.0024,0.2783
0.0024,0.0024,0.0024,0.0024,0.0024,0.0024,0.1099,0.1465,0.0024,0.2759
0.0024,0.0024,0.0024,0.0024,0.0024,0.0024,0.1343,0.1416,0.0024,0.2686
0.0024,0.0024,0.0024,0.0024,0.0024,0.0049,0.1636,0.1416,0.0024,0.2612
0.0024,0.0024,0.0024,0.0024,0.0024,0.0073,0.1685,0.1758,0.0024,0.2905
0.0024,0.0024,0.0024,0.0024,0.0024,0.0073,0.1416,0.1563,0.0024,0.2808
0.0024,0.0024,0.0024,0.0024,0.0024,0.0073,0.1147,0.1196,0.0024,0.2832
0.0098,0.0024,0.0049,0.0024,0.0024,0.0122,0.1758,0.1611,0.0024,0.2881
0.0098,0.0024,0.0024,0.0024,0.0024,0.0073,0.1465,0.1855,0.0024,0.2783
0.0024,0.0024,0.0024,0.0024,0.0024,0.0024,0.1636,0.1733,0.0024,0.2661
0.0024,0.0024,0.0024,0.0024,0.0024,0.0024,0.1782,0.1587,0.0024,0.2563
0.0024,0.0024,0.0049,0.0024,0.0024,0.0049,0.1489,0.1245,0.0024,0.2734
0.0024,0.0024,0.0024,0.0024,0.0024,0.0049,0.1514,0.1245,0.0024,0.2759
0.0049,0.0024,0.0024,0.0024,0.0024,0.0024,0.1392,0.1758,0.0024,0.293
0.0024,0.0024,0.0024,0.0024,0.0024,0.0024,0.1196,0.127,0.0024,0.2515
0.0024,0.0024,0.0024,0.0024,0.0024,0.0391,1.5601,0.1709,0.0024,0.2759
0.022,0.0024,0.0024,0.0024,0.0024,0.0317,1.3037,0.21,0.0024,0.2734
0.0195,0.0024,0.0024,0.0024,0.0024,0.0269,1.1377,0.2222,0.0024,0.2856
0.0024,0.0024,0.0024,0.0024,0.0024,0.0269,1.3428,0.1733,0.0024,0.2881
0.0024,0.0024,0.0024,0.0024,0.0024,0.0049,0.6226,0.1758,0.0024,0.2979
0.0024,0.0024,0.0024,0.0024,0.0024,0.0073,0.5933,0.2002,0.0024,0.3003
0.0049,0.0024,0.0049,0.0024,0.0024,0.0171,0.5933,0.2148,0.0024,0.2905
0.0024,0.0024,0.0024,0.0024,0.0024,0.0098,0.7837,0.2026,0.0024,0.3223
0.0122,0.0024,0.0024,0.0024,0.0024,0.0024,0.481,0.1953,0.0024,0.2979
0.0024,0.0024,0.0024,0.0024,0.0024,0.0073,0.4224,0.1831,0.0024,0.2954
0.0073,0.0024,0.0024,0.0024,0.0024,0.0098,0.7251,0.2002,0.0024,0.2588
0.0073,0.0024,0.0024,0.0024,0.0024,0.0146,0.6689,0.1978,0.0024,0.2686
0.0049,0.0024,0.0024,0.0024,0.0024,0.0098,0.5151,0.1807,0.0024,0.3027
0.0073,0.0024,0.0024,0.0024,0.0024,0.0024,0.1782,0.2051,0.0024,0.3101
0.0024,0.0024,0.0024,0.0024,0.0024,0.0073,0.1636,0.1416,0.0024,0.2832
0.0024,0.0024,0.0024,0.0024,0.0024,0.0049,0.1636,0.1489,0.0024,0.3101
0.0073,0.0024,0.0024,0.0024,0.0024,0.0049,0.1538,0.1587,0.0024,0.2832
0.0024,0.0024,0.0024,0.0024,0.0024,0.0049,0.1489,0.1538,0.0024,0.2856
0.0024,0.0024,0.0024,0.0024,0.0024,0.0049,0.1416,0.144,0.0024,0.293
0.0024,0.0024,0.0024,0.0024,0.0024,0.0024,0.127,0.127,0.0024,0.3101
0.0024,0.0024,0.0024,0.0024,0.0024,0.0024,0.0903,0.1587,0.0024,0.3101
0.0024,0.0024,0.0024,0.0024,0.0024,0.0024,0.105,0.1587,0.0024,0.2881
0.0024,0.0024,0.0024,0.0024,0.0024,0.0098,0.1514,0.1514,0.0024,0.2686
0.0024,0.0024,0.0024,0.0024,0.0024,0.0024,0.0513,0.1343,0.0024,0.2612
0.0098,0.0024,0.0024,0.0024,0.0024,0.0024,0.1221,0.1782,0.0024,0.2661
0.0024,0.0024,0.0024,0.0024,0.0024,0.0024,0.1294,0.1733,0.0024,0.2515
0.0024,0.0024,0.0024,0.0024,0.0024,0.0024,0.1294,0.1563,0.0024,0.249
0.0024,0.0024,0.0024,0.0024,0.0024,0.0024,0.1147,0.1367,0.0024,0.2734
0.0195,0.0024,0.0024,0.0024,0.0024,0.0146,0.127,0.1929,0.0024,0.2905
0.0024,0.0024,0.0024,0.0049,0.0024,0.0024,0.1733,0.1807,0.0024,0.3174
0.0024,0.0024,0.0024,0.0024,0.0024,0.0024,0.1245,0.1758,0.0024,0.3101
0.0024,0.0024,0.0024,0.0024,0.0024,0.0024,0.1147,0.1465,0.0024,0.2856
0.0024,0.0024,0.0024,0.0024,0.0024,0.0024,0.1221,0.1392,0.0024,0.2734
0.0024,0.0024,0.0024,0.0024,0.0024,0.0024,0.1563,0.1343,0.0024,0.293
0.0024,0.0024,0.0024,0.0024,0.0024,0.0024,0.1514,0.1221,0.0024,0.2881
0.0024,0.0024,0.0024,0.0024,0.0024,0.0024,0.1514,0.1294,0.0024,0.2905
0.0024,0.0024,0.0024,0.0024,0.0024,0.0024,0.2881,0.1367,0.0024,0.2783
0.0024,0.0024,0.0024,0.0024,0.0024,0.0024,0.2173,0.1465,0.0024,0.2856
0.0073,0.0024,0.0024,0.0024,0.0024,0.0098,0.3223,0.1636,0.0024,0.2734
0.0073,0.0024,0.0024,0.0024,0.0024,0.0122,0.2881,0.1685,0.0024,0.2734
0.0098,0.0024,0.0024,0.0024,0.0024,0.0024,0.3003,0.1611,0.0024,0.2905
0.0073,0.0024,0.0024,0.0024,0.0024,0.0024,0.293,0.1636,0.0024,0.2832
0.0049,0.0024,0.0024,0.0024,0.0024,0.0024,0.1807,0.1538,0.0024,0.3003
0.0024,0.0024,0.0024,0.0024,0.0024,0.0073,0.2515,0.127,0.0024,0.2588
0.0024,0.0024,0.0024,0.0024,0.0024,0.0024,0.1587,0.1172,0.0024,0.2686
0.0098,0.0024,0.0049,0.0024,0.0024,0.0073,0.3101,0.1367,0.0024,0.2637
0.0146,0.0024,0.0024,0.0024,0.0024,0.0024,0.249,0.1514,0.0024,0.271
0.0024,0.0024,0.0024,0.0024,0.0024,0.0024,0.2588,0.1318,0.0024,0.3027
0.0024,0.0024,0.0024,0.0024,0.0024,0.0024,0.21,0.1416,0.0024,0.3076
0.0024,0.0024,0.0024,0.0024,0.0024,0.0024,0.1855,0.1709,0.0024,0.3052
0.0024,0.0024,0.0049,0.0024,0.0024,0.0024,0.1953,0.1465,0.0024,0.2954
0.0024,0.0024,0.0024,0.0024,0.0024,0.0024,0.1855,0.1367,0.0024,0.293
0.0024,0.0024,0.0024,0.0024,0.0024,0.0024,0.1538,0.1147,0.0024,0.2808
0.0024,0.0024,0.0024,0.0024,0.0024,0.0049,0.1929,0.1343,0.0024,0.3003
0.0024,0.0024,0.0024,0.0024,0.0024,0.0024,0.1563,0.1343,0.0024,0.271
0.0024,0.0024,0.0024,0.0024,0.0024,0.0024,0.1587,0.1489,0.0024,0.2783
0.0024,0.0024,0.0024,0.0024,0.0024,0.0073,0.1416,0.1685,0.0024,0.3149
0.0073,0.0024,0.0024,0.0024,0.0024,0.0513,1.9849,0.1807,0.0024,0.2344
0.0098,0.0024,0.0024,0.0024,0.0024,0.0513,1.8188,0.1855,0.0024,0.2417
0.0024,0.0024,0.0024,0.0024,0.0024,0.0391,1.8604,0.1636,0.0024,0.2539
0.0024,0.0024,0.0024,0.0024,0.0024,0.0562,1.604,0.1636,0.0024,0.2271
0.0024,0.0024,0.0024,0.0024,0.0024,0.0488,1.3403,0.1294,0.0024,0.2246
0.0024,0.0024,0.0024,0.0024,0.0024,0.0195,1.2939,0.1782,0.0024,0.2271
0.0122,0.0024,0.0024,0.0024,0.0024,0.0146,1.2769,0.1978,0.0024,0.2295
0.0073,0.0024,0.0024,0.0024,0.0024,0.0415,1.1914,0.166,0.0024,0.249
0.0073,0.0024,0.0024,0.0024,0.0024,0.0293,1.355,0.1685,0.0024,0.2295
0.0073,0.0024,0.0024,0.0024,0.0024,0.0122,1.3257,0.2075,0.0024,0.2368
0.0122,0.0024,0.0024,0.0024,0.0024,0.0146,1.3574,0.2222,0.0024,0.2344
0.0122,0.0024,0.0024,0.0024,0.0049,0.0171,1.2573,0.2124,0.0024,0.2271
0.0024,0.0024,0.0024,0.0024,0.0024,0.0244,1.3354,0.1587,0.0024,0.2271
0.0024,0.0024,0.0024,0.0024,0.0024,0.0171,1.2842,0.1367,0.0024,0.2197
0.0024,0.0024,0.0024,0.0024,0.0024,0.0024,1.416,0.1294,0.0024,0.2271
0.0024,0.0024,0.0024,0.0024,0.0024,0.0024,1.2598,0.1318,0.0024,0.2148
0.0024,0.0024,0.0049,0.0024,0.0024,0.0049,1.2329,0.1294,0.0024,0.2075
0.0024,0.0024,0.0024,0.0024,0.0024,0.0098,1.1206,0.1172,0.0024,0.2344
0.0024,0.0024,0.0024,0.0024,0.0024,0.0024,0.8765,0.1221,0.0024,0.2222
0.0024,0.0024,0.0024,0.0024,0.0024,0.0024,1.0034,0.1245,0.0024,0.2271
0.0024,0.0024,0.0024,0.0024,0.0024,0.0122,1.1865,0.1465,0.0024,0.249
0.0024,0.0024,0.0024,0.0024,0.0024,0.0171,1.2476,0.1392,0.0024,0.249
0.0024,0.0024,0.0024,0.0024,0.0024,0.0049,1.0132,0.1489,0.0024,0.2295
0.0049,0.0024,0.0024,0.0024,0.0024,0.0146,1.0132,0.1245,0.0024,0.2368
0.0024,0.0024,0.0024,0.0024,0.0024,0.0171,0.9546,0.1465,0.0024,0.2319
0.0024,0.0024,0.0024,0.0024,0.0024,0.0195,0.9717,0.144,0.0024,0.2246
0.0024,0.0024,0.0024,0.0024,0.0024,0.0073,0.8984,0.1123,0.0024,0.2148
0.0024,0.0024,0.0024,0.0024,0.0024,0.0171,1.123,0.1343,0.0024,0.21
0.0024,0.0024,0.0024,0.0024,0.0024,0.0146,1.1743,0.1465,0.0024,0.2222
0.0024,0.0024,0.0024,0.0024,0.0024,0.0171,1.1182,0.1416,0.0024,0.2417
0.0024,0.0024,0.0024,0.0024,0.0024,0.0122,1.1084,0.1465,0.0024,0.2417
0.0024,0.0024,0.0024,0.0024,0.0024,0.0024,0.957,0.1245,0.0024,0.21
0.0024,0.0024,0.0024,0.0024,0.0024,0.0073,0.8423,0.144,0.0024,0.2271
0.0024,0.0024,0.0024,0.0024,0.0024,0.0122,1.0352,0.1392,0.0024,0.2051
0.0024,0.0024,0.0024,0.0024,0.0024,0.0073,0.874,0.1367,0.0024,0.2173
0.0024,0.0024,0.0024,0.0024,0.0024,0.0024,0.7202,0.1538,0.0024,0.2271
0.0024,0.0024,0.0024,0.0024,0.0024,0.0024,0.9106,0.1318,0.0024,0.249
0.0024,0.0024,0.0024,0.0024,0.0024,0.0073,0.7153,0.1343,0.0024,0.2246
0.0024,0.0024,0.0024,0.0024,0.0024,0.0073,0.7861,0.1514,0.0024,0.2197
0.0024,0.0024,0.0024,0.0024,0.0024,0.0122,0.8569,0.1538,0.0024,0.2148
0.0024,0.0024,0.0024,0.0024,0.0024,0.0098,0.8057,0.1343,0.0024,0.2222
0.0024,0.0024,0.0024,0.0024,0.0024,0.0024,0.8643,0.1099,0.0024,0.2344
0.0024,0.0024,0.0024,0.0024,0.0024,0.0049,0.9595,0.105,0.0024,0.2197
0.0024,0.0024,0.0024,0.0024,0.0024,0.0024,0.7739,0.0977,0.0024,0.2197
0.0024,0.0024,0.0024,0.0024,0.0024,0.0049,0.7715,0.1196,0.0024,0.2246
0.0024,0.0024,0.0024,0.0024,0.0024,0.0122,0.9155,0.1245,0.0024,0.2197
0.0024,0.0024,0.0024,0.0024,0.0049,0.022,0.791,0.1245,0.0024,0.2173
0.0024,0.0024,0.0024,0.0024,0.0024,0.0122,0.7568,0.1147,0.0024,0.2173
0.0024,0.0024,0.0024,0.0024,0.0024,0.0024,0.7568,0.1416,0.0024,0.2124
0.0024,0.0024,0.0024,0.0024,0.0024,0.0024,0.7544,0.1245,0.0024,0.2417
0.0024,0.0024,0.0024,0.0024,0.0049,0.0024,0.7178,0.127,0.0024,0.249
0.0024,0.0024,0.0024,0.0024,0.0024,0.0024,0.8057,0.1294,0.0024,0.2612
0.0073,0.0024,0.0024,0.0024,0.0024,0.0098,0.7739,0.1904,0.0024,0.2222
0.0049,0.0024,0.0024,0.0024,0.0024,0.0073,0.7104,0.1367,0.0024,0.2222
0.0024,0.0024,0.0024,0.0024,0.0024,0.0073,0.752,0.1294,0.0024,0.2197
0.0024,0.0024,0.0024,0.0024,0.0024,0.0073,0.9912,0.1367,0.0024,0.21
0.0024,0.0024,0.0024,0.0024,0.0024,0.0049,0.7007,0.1172,0.0024,0.2002
0.0024,0.0024,0.0024,0.0024,0.0024,0.0024,0.6592,0.1245,0.0024,0.2295
0.0024,0.0024,0.0024,0.0024,0.0024,0.0024,0.7251,0.1245,0.0024,0.2246
0.0024,0.0024,0.0024,0.0024,0.0024,0.0024,0.686,0.1318,0.0024,0.2246
0.0024,0.0024,0.0024,0.0024,0.0024,0.0049,0.7593,0.1147,0.0024,0.2246
0.0049,0.0024,0.0024,0.0024,0.0024,0.0049,0.8984,0.1123,0.0024,0.2148
0.0024,0.0024,0.0024,0.0024,0.0024,0.0122,1.062,0.1367,0.0024,0.2344
0.0024,0.0024,0.0024,0.0024,0.0024,0.0122,0.354,0.1709,0.0024,0.2466
0.0073,0.0024,0.0024,0.0024,0.0024,0.0122,0.7446,0.1782,0.0024,0.2295
0.0146,0.0024,0.0024,0.0024,0.0024,0.0269,0.8325,0.188,0.0024,0.2148
0.0122,0.0024,0.0024,0.0024,0.0024,0.0244,0.8252,0.1855,0.0024,0.2075
0.0049,0.0024,0.0024,0.0024,0.0024,0.0366,1.3428,0.1831,0.0024,0.2271
0.0366,0.0024,0.0024,0.0024,0.0024,0.1245,2.9199,0.2954,0.0024,0.2222
0.0024,0.0024,0.0024,0.0024,0.0024,0.0244,1.9824,0.1855,0.0024,0.2051
0.0024,0.0024,0.0024,0.0024,0.0024,0.0366,1.4258,0.1611,0.0024,0.2441
0.0122,0.0024,0.0024,0.0024,0.0024,0.0293,1.2842,0.1636,0.0024,0.2246
0.0073,0.0024,0.0024,0.0024,0.0024,0.0293,1.333,0.1709,0.0024,0.21
0.0049,0.0024,0.0049,0.0024,0.0024,0.0269,1.7578,0.188,0.0024,0.2368
0.0024,0.0024,0.0024,0.0024,0.0049,0.0195,1.4844,0.144,0.0024,0.2246
0.0024,0.0024,0.0024,0.0024,0.0024,0.0073,1.2915,0.1367,0.0024,0.2173
0.0049,0.0024,0.0024,0.0024,0.0024,0.0098,1.4038,0.1514,0.0024,0.2197
0.0049,0.0024,0.0024,0.0024,0.0024,0.0171,1.2012,0.1416,0.0024,0.2295
0.0122,0.0024,0.0024,0.0024,0.0024,0.0244,1.3672,0.1733,0.0024,0.2368
0.0122,0.0024,0.0024,0.0024,0.0024,0.022,1.4087,0.1758,0.0024,0.2295
0.0024,0.0024,0.0024,0.0024,0.0024,0.0073,1.2769,0.1245,0.0024,0.2246
0.0024,0.0024,0.0024,0.0024,0.0024,0.0146,1.4551,0.1514,0.0024,0.2124
0.0049,0.0024,0.0024,0.0024,0.0024,0.022,1.0645,0.1514,0.0024,0.2441
0.0024,0.0024,0.0024,0.0024,0.0024,0.0195,1.2402,0.1465,0.0024,0.2417
0.0024,0.0024,0.0024,0.0024,0.0024,0.022,0.8081,0.1343,0.0024,0.2417
0.0024,0.0024,0.0024,0.0024,0.0024,0.0073,0.8057,0.1392,0.0024,0.2368
0.0024,0.0024,0.0024,0.0024,0.0024,0.0049,0.9131,0.1416,0.0024,0.2295
0.0024,0.0024,0.0024,0.0024,0.0024,0.0146,0.9033,0.1245,0.0024,0.2344
0.0024,0.0024,0.0024,0.0024,0.0024,0.0171,0.813,0.1343,0.0024,0.2417
0.0024,0.0024,0.0024,0.0024,0.0024,0.022,0.8081,0.1147,0.0024,0.2417
0.0024,0.0024,0.0024,0.0024,0.0024,0.0195,0.8105,0.1318,0.0024,0.2173
0.0024,0.0024,0.0049,0.0024,0.0024,0.0024,0.4932,0.1416,0.0024,0.2417
0.0024,0.0024,0.0024,0.0024,0.0024,0.0073,0.6055,0.1343,0.0024,0.2075
0.0024,0.0024,0.0024,0.0024,0.0024,0.0049,0.5542,0.1221,0.0024,0.2222
0.0024,0.0024,0.0024,0.0024,0.0024,0.0024,0.5469,0.1099,0.0024,0.2344
0.0024,0.0024,0.0024,0.0024,0.0049,0.0122,0.6323,0.1416,0.0024,0.2051
0.0024,0.0024,0.0024,0.0024,0.0024,0.0049,0.5127,0.1099,0.0024,0.2197
0.0024,0.0024,0.0024,0.0024,0.0024,0.0073,0.5151,0.1245,0.0024,0.2295
0.0024,0.0024,0.0024,0.0024,0.0024,0.0122,0.4248,0.1343,0.0024,0.2319
0.0024,0.0024,0.0024,0.0024,0.0024,0.0146,0.7422,0.1392,0.0024,0.2002
0.0024,0.0024,0.0024,0.0024,0.0024,0.0049,0.6006,0.1294,0.0024,0.2466
0.0049,0.0024,0.0024,0.0024,0.0024,0.0171,0.7446,0.166,0.0024,0.2148
0.0024,0.0024,0.0024,0.0024,0.0024,0.0122,0.5859,0.1489,0.0024,0.2246
0.0024,0.0024,0.0024,0.0024,0.0024,0.0098,0.6665,0.144,0.0024,0.2173
0.0024,0.0024,0.0024,0.0024,0.0024,0.0122,0.5127,0.1196,0.0024,0.249
0.0024,0.0024,0.0024,0.0024,0.0024,0.0146,0.5713,0.1318,0.0024,0.2563
0.0024,0.0024,0.0024,0.0024,0.0024,0.0293,0.7251,0.1416,0.0024,0.2417
0.0049,0.0024,0.0024,0.0024,0.0024,0.0269,1.2915,0.1392,0.0024,0.2148
0.0024,0.0024,0.0024,0.0024,0.0024,0.0317,1.1279,0.1367,0.0024,0.2173
0.0024,0.0024,0.0024,0.0024,0.0024,0.0244,1.5503,0.144,0.0024,0.2002
0.0098,0.0024,0.0024,0.0024,0.0024,0.0342,2.605,0.1489,0.0024,0.2319
0.0146,0.0024,0.0024,0.0024,0.0024,0.0366,2.666,0.1563,0.0024,0.2295
0.0024,0.0024,0.0024,0.0024,0.0049,0.0464,1.9556,0.2051,0.0024,0.2319
0.0024,0.0024,0.0024,0.0024,0.0024,0.0415,1.6333,0.1807,0.0024,0.2319
0.0049,0.0024,0.0024,0.0024,0.0024,0.0293,1.7285,0.1392,0.0024,0.2417
0.0024,0.0024,0.0024,0.0024,0.0024,0.0391,1.5991,0.1489,0.0024,0.2393
0.0024,0.0024,0.0024,0.0024,0.0024,0.0391,1.6553,0.166,0.0024,0.2466
0.0024,0.0024,0.0024,0.0024,0.0024,0.0513,1.7969,0.1489,0.0024,0.2466
0.0024,0.0024,0.0024,0.0024,0.0024,0.0098,1.4648,0.1196,0.0024,0.249
0.0024,0.0024,0.0024,0.0024,0.0024,0.022,1.5356,0.127,0.0024,0.2393
0.0024,0.0024,0.0024,0.0024,0.0024,0.022,1.3257,0.1245,0.0024,0.2295
0.0024,0.0024,0.0024,0.0024,0.0024,0.0317,1.2305,0.1392,0.0024,0.2222
0.0024,0.0024,0.0024,0.0024,0.0024,0.0293,1.2427,0.1294,0.0024,0.2197
0.0024,0.0024,0.0024,0.0024,0.0024,0.0146,1.167,0.1221,0.0024,0.2222
0.0024,0.0024,0.0024,0.0024,0.0024,0.0049,1.0132,0.1123,0.0024,0.2222
0.0024,0.0024,0.0024,0.0024,0.0024,0.0195,1.2842,0.127,0.0024,0.2368
0.0024,0.0024,0.0024,0.0024,0.0024,0.0269,1.5332,0.1489,0.0024,0.2515
0.0024,0.0024,0.0024,0.0024,0.0024,0.0342,1.3257,0.1172,0.0024,0.2197
0.0024,0.0024,0.0024,0.0024,0.0024,0.0244,1.5186,0.105,0.0024,0.2319
0.0024,0.0024,0.0024,0.0024,0.0024,0.0269,1.5747,0.1147,0.0024,0.2368
0.0024,0.0024,0.0024,0.0024,0.0024,0.0317,0.9961,0.1123,0.0024,0.2295
0.0024,0.0024,0.0024,0.0024,0.0024,0.0269,1.2622,0.1636,0.0024,0.2417
0.0049,0.0024,0.0024,0.0024,0.0024,0.022,1.123,0.1514,0.0024,0.2393
0.0073,0.0024,0.0024,0.0024,0.0024,0.0269,1.2964,0.1538,0.0024,0.2295
0.0122,0.0024,0.0024,0.0024,0.0024,0.0293,1.2524,0.166,0.0024,0.2271
0.0024,0.0024,0.0024,0.0024,0.0024,0.0391,1.355,0.1318,0.0024,0.2246
0.0024,0.0024,0.0049,0.0024,0.0024,0.0415,1.2402,0.1367,0.0024,0.2344
0.0024,0.0024,0.0024,0.0024,0.0024,0.0342,1.0864,0.127,0.0024,0.2417
0.0024,0.0024,0.0049,0.0024,0.0024,0.0269,1.1646,0.1294,0.0024,0.2246
0.0024,0.0024,0.0024,0.0024,0.0024,0.0122,0.9961,0.1318,0.0024,0.2344
0.0024,0.0024,0.0024,0.0024,0.0024,0.0098,1.1792,0.1343,0.0024,0.2368
0.0024,0.0024,0.0024,0.0024,0.0049,0.0049,1.1426,0.1245,0.0024,0.2368
0.0024,0.0024,0.0024,0.0024,0.0024,0.0244,1.2646,0.1123,0.0024,0.2417
0.0024,0.0024,0.0024,0.0024,0.0024,0.0195,1.1792,0.1563,0.0024,0.2246
0.0073,0.0024,0.0024,0.0024,0.0024,0.022,1.1108,0.1685,0.0024,0.2197
0.0024,0.0024,0.0024,0.0024,0.0024,0.0146,1.0278,0.1416,0.0024,0.2026
0.0024,0.0024,0.0024,0.0024,0.0024,0.022,1.2012,0.1147,0.0024,0.249
0.0024,0.0024,0.0024,0.0024,0.0024,0.0122,1.2134,0.1514,0.0024,0.2417
0.0024,0.0024,0.0024,0.0024,0.0024,0.022,1.1011,0.1538,0.0024,0.2246
0.0024,0.0024,0.0024,0.0024,0.0024,0.0098,1.1499,0.1367,0.0024,0.2148
0.0024,0.0024,0.0024,0.0024,0.0024,0.0122,1.1694,0.1367,0.0024,0.2271
0.0024,0.0024,0.0049,0.0024,0.0024,0.0269,1.123,0.1416,0.0024,0.2246
0.0024,0.0024,0.0049,0.0024,0.0024,0.0366,1.2329,0.105,0.0024,0.2588
0.0049,0.0024,0.0024,0.0024,0.0024,0.0415,1.3647,0.1514,0.0024,0.271
0.0024,0.0024,0.0024,0.0024,0.0024,0.0342,1.6309,0.1636,0.0024,0.2539
0.0024,0.0024,0.0024,0.0024,0.0024,0.0024,1.1499,0.1172,0.0024,0.2124
0.0024,0.0024,0.0024,0.0024,0.0024,0.0073,1.0864,0.1392,0.0024,0.21
0.0073,0.0024,0.0024,0.0024,0.0024,0.022,0.8569,0.1294,0.0024,0.2295
0.0024,0.0024,0.0024,0.0024,0.0024,0.0171,0.8472,0.1245,0.0024,0.2344
0.0024,0.0024,0.0024,0.0024,0.0024,0.0342,1.2769,0.1147,0.0024,0.2271
0.0024,0.0024,0.0024,0.0024,0.0024,0.022,1.2695,0.1123,0.0024,0.2344
0.0024,0.0024,0.0024,0.0024,0.0049,0.0342,1.25,0.1416,0.0024,0.2319
0.0024,0.0024,0.0024,0.0024,0.0024,0.022,1.1499,0.1392,0.0024,0.2344
0.0024,0.0024,0.0024,0.0024,0.0024,0.022,1.106,0.1343,0.0024,0.2124
0.0024,0.0024,0.0049,0.0024,0.0024,0.0244,1.0718,0.1294,0.0024,0.2197
0.0342,0.0049,0.0024,0.0024,0.0024,0.1025,3.4741,0.3174,0.0024,0.2002
0.0195,0.0024,0.0024,0.0024,0.0024,0.0977,3.0225,0.2246,0.0024,0.2222
0.0293,0.0024,0.0024,0.0024,0.0024,0.1025,2.2559,0.2515,0.0024,0.2246
0.0195,0.0024,0.0024,0.0024,0.0024,0.1245,2.0093,0.2246,0.0024,0.2515
0.0049,0.0024,0.0024,0.0024,0.0024,0.0317,1.6699,0.2026,0.0024,0.2295
0.0024,0.0024,0.0024,0.0024,0.0024,0.0098,1.6235,0.1636,0.0024,0.2466
0.0024,0.0024,0.0049,0.0024,0.0024,0.022,1.0693,0.1172,0.0024,0.2148
0.0073,0.0024,0.0024,0.0024,0.0024,0.0269,0.9692,0.1611,0.0024,0.2173
0.0024,0.0024,0.0024,0.0024,0.0024,0.0171,0.8252,0.0952,0.0024,0.2222
0.0049,0.0024,0.0024,0.0024,0.0024,0.0146,0.8862,0.1025,0.0024,0.2246
0.0024,0.0024,0.0024,0.0024,0.0049,0.0024,0.896,0.1172,0.0024,0.2295
0.0024,0.0024,0.0024,0.0024,0.0024,0.0146,0.9595,0.1465,0.0024,0.2344
0.0024,0.0024,0.0024,0.0024,0.0024,0.0024,0.7764,0.1074,0.0024,0.2148
0.0024,0.0024,0.0024,0.0024,0.0024,0.0049,0.5347,0.1123,0.0024,0.2368
0.0024,0.0024,0.0049,0.0024,0.0024,0.0073,0.8984,0.1221,0.0024,0.2222
0.0024,0.0024,0.0049,0.0024,0.0024,0.0024,0.8569,0.1318,0.0024,0.2222
0.0024,0.0024,0.0024,0.0024,0.0024,0.0024,0.8154,0.1318,0.0024,0.2319
0.0024,0.0024,0.0024,0.0024,0.0024,0.0073,0.8667,0.1172,0.0024,0.2319
0.0024,0.0024,0.0024,0.0024,0.0024,0.0049,1.0059,0.144,0.0024,0.249
0.0024,0.0024,0.0024,0.0024,0.0024,0.0049,1.0278,0.1416,0.0024,0.2441
0.0024,0.0024,0.0024,0.0024,0.0024,0.0024,1.0913,0.1538,0.0024,0.2393
0.0024,0.0024,0.0024,0.0024,0.0024,0.0171,0.7275,0.144,0.0024,0.2441
0.0024,0.0024,0.0024,0.0024,0.0024,0.0024,0.7495,0.1343,0.0024,0.2295
0.0024,0.0024,0.0024,0.0024,0.0024,0.0073,0.9082,0.1245,0.0024,0.2173
0.0024,0.0024,0.0024,0.0024,0.0024,0.0049,0.8057,0.1196,0.0024,0.21
0.0024,0.0024,0.0024,0.0024,0.0024,0.0122,0.8667,0.1221,0.0024,0.2051
0.0024,0.0024,0.0024,0.0024,0.0024,0.0098,0.9497,0.1025,0.0024,0.2246
0.0024,0.0024,0.0024,0.0024,0.0024,0.0146,0.7153,0.1294,0.0024,0.2344
0.0024,0.0024,0.0024,0.0024,0.0024,0.0122,0.752,0.1196,0.0024,0.2417
0.0024,0.0024,0.0024,0.0024,0.0049,0.0195,1.0693,0.1147,0.0024,0.2222
0.0024,0.0024,0.0024,0.0024,0.0024,0.0146,1.2305,0.1025,0.0024,0.21
0.0024,0.0024,0.0024,0.0024,0.0024,0.0122,1.0205,0.1318,0.0024,0.2393
0.0024,0.0024,0.0195,0.0024,0.0024,0.0024,0.4712,0.1343,0.0024,0.2148
0.0024,0.0024,0.0171,0.0024,0.0024,0.0024,0.415,0.1416,0.0024,0.2197
0.0024,0.0024,0.0073,0.0024,0.0024,0.0073,0.5518,0.1465,0.0024,0.2222
0.0098,0.0024,0.0024,0.0024,0.0024,0.0049,0.769,0.1563,0.0024,0.2173
0.0049,0.0024,0.0024,0.0024,0.0049,0.0098,1.0278,0.1831,0.0024,0.2417
0.0024,0.0024,0.0024,0.0024,0.0024,0.0269,1.0059,0.1099,0.0024,0.2197
0.0024,0.0024,0.0024,0.0024,0.0024,0.0146,0.8496,0.1147,0.0024,0.21
0.0024,0.0024,0.0024,0.0024,0.0024,0.0122,0.7642,0.1172,0.0024,0.2026
0.0024,0.0024,0.0024,0.0024,0.0024,0.0195,0.9033,0.1489,0.0024,0.2344
0.0024,0.0024,0.0024,0.0024,0.0024,0.0024,0.9155,0.1733,0.0024,0.2319
0.0024,0.0024,0.0024,0.0024,0.0024,0.0024,0.8936,0.1733,0.0024,0.2271
0.0024,0.0024,0.0024,0.0024,0.0024,0.0049,0.7593,0.1587,0.0024,0.2344
0.0024,0.0024,0.0024,0.0024,0.0024,0.0146,0.8154,0.1514,0.0024,0.2271
0.0024,0.0024,0.0024,0.0024,0.0024,0.0146,0.8447,0.1294,0.0024,0.2124
0.0024,0.0024,0.0024,0.0024,0.0024,0.0171,0.8643,0.0903,0.0024,0.2271
0.0024,0.0024,0.0024,0.0024,0.0024,0.0171,0.8667,0.1489,0.0024,0.2246
0.0024,0.0024,0.0024,0.0024,0.0024,0.0195,0.8765,0.1489,0.0024,0.2173
0.0024,0.0024,0.0024,0.0024,0.0024,0.0171,0.8545,0.1392,0.0024,0.2295
0.0024,0.0024,0.0024,0.0024,0.0024,0.0171,0.6934,0.1221,0.0024,0.2417
0.0024,0.0024,0.0024,0.0024,0.0024,0.0439,0.9912,0.1318,0.0024,0.2295
0.0024,0.0024,0.0024,0.0024,0.0024,0.0293,0.9155,0.1563,0.0024,0.2173
0.0024,0.0024,0.0024,0.0024,0.0024,0.0342,0.9351,0.1392,0.0024,0.2148
0.0024,0.0024,0.0049,0.0024,0.0024,0.0293,0.8643,0.144,0.0024,0.2246
0.0024,0.0024,0.0024,0.0024,0.0024,0.0269,0.918,0.1294,0.0024,0.2197
0.0049,0.0024,0.0024,0.0024,0.0024,0.0098,0.6323,0.1538,0.0024,0.2148
0.0024,0.0024,0.0024,0.0024,0.0024,0.0293,1.2476,0.2051,0.0024,0.2197
0.0098,0.0024,0.0024,0.0024,0.0024,0.0684,1.875,0.2368,0.0024,0.2271
0.0146,0.0024,0.0024,0.0024,0.0024,0.0854,2.1167,0.2075,0.0024,0.2417
0.0293,0.0024,0.0024,0.0024,0.0024,0.083,1.8579,0.2441,0.0024,0.2612
0.0024,0.0024,0.0024,0.0024,0.0024,0.0293,1.626,0.1318,0.0024,0.2588
0.0073,0.0024,0.0024,0.0024,0.0024,0.0317,1.5967,0.1392,0.0024,0.2734
0.0122,0.0024,0.0024,0.0024,0.0024,0.0342,1.355,0.1587,0.0024,0.2686
0.0122,0.0024,0.0024,0.0024,0.0024,0.0439,1.6577,0.1953,0.0024,0.271
0.0024,0.0024,0.0024,0.0024,0.0024,0.0537,1.7529,0.1758,0.0024,0.2686
0.0024,0.0024,0.0024,0.0024,0.0024,0.0269,1.3428,0.1318,0.0024,0.2734
0.0024,0.0024,0.0024,0.0024,0.0024,0.0244,1.0498,0.1733,0.0024,0.2563
0.0024,0.0024,0.0024,0.0024,0.0024,0.0366,1.4209,0.1733,0.0024,0.2856
0.0024,0.0024,0.0024,0.0024,0.0024,0.0293,1.2598,0.1294,0.0024,0.293
0.0024,0.0024,0.0024,0.0024,0.0024,0.0269,1.1475,0.1196,0.0024,0.3052
0.0024,0.0024,0.0024,0.0024,0.0024,0.0171,0.979,0.1245,0.0024,0.293
0.0024,0.0024,0.0024,0.0024,0.0049,0.0195,0.8936,0.1074,0.0024,0.2612
0.0049,0.0024,0.0024,0.0024,0.0024,0.0366,1.0693,0.1733,0.0024,0.2905
0.0024,0.0024,0.0024,0.0024,0.0024,0.0146,1.0938,0.1587,0.0024,0.2686
0.0098,0.0024,0.0024,0.0024,0.0024,0.0562,1.25,0.1953,0.0024,0.3101
0.0024,0.0024,0.0024,0.0049,0.0024,0.0146,1.1328,0.1416,0.0024,0.2734
0.0024,0.0024,0.0024,0.0024,0.0024,0.0073,0.9692,0.1172,0.0024,0.2686
0.0024,0.0024,0.0024,0.0024,0.0024,0.0073,0.9277,0.1123,0.0024,0.2734
0.0024,0.0024,0.0024,0.0049,0.0024,0.0122,1.0059,0.1343,0.0024,0.2905
0.0024,0.0024,0.0024,0.0024,0.0024,0.0122,1.106,0.1196,0.0024,0.2832
0.0024,0.0024,0.0024,0.0024,0.0024,0.0244,1.123,0.127,0.0024,0.2881
0.0024,0.0024,0.0024,0.0024,0.0024,0.0049,1.0034,0.1465,0.0024,0.2783
0.0024,0.0024,0.0024,0.0024,0.0024,0.0195,1.0083,0.1343,0.0024,0.2686
0.0024,0.0024,0.0024,0.0024,0.0024,0.0073,1.0254,0.144,0.0024,0.2808
0.0024,0.0024,0.0049,0.0024,0.0024,0.0073,1.0986,0.127,0.0024,0.2832
0.0024,0.0024,0.0024,0.0024,0.0024,0.0122,1.04,0.1123,0.0024,0.293
0.0024,0.0024,0.0024,0.0024,0.0024,0.0146,1.0889,0.1221,0.0024,0.2881
0.0024,0.0024,0.0024,0.0024,0.0024,0.022,0.8691,0.1318,0.0024,0.293
0.0024,0.0024,0.0024,0.0024,0.0024,0.0146,0.9814,0.1367,0.0024,0.2881
0.0024,0.0024,0.0024,0.0024,0.0024,0.0171,0.7178,0.1367,0.0024,0.2808
0.0024,0.0024,0.0024,0.0024,0.0024,0.0195,0.7813,0.1343,0.0024,0.2856
0.0024,0.0024,0.0024,0.0024,0.0024,0.0146,1.2451,0.1831,0.0024,0.2734
0.0024,0.0024,0.0024,0.0024,0.0024,0.0024,0.9814,0.1587,0.0024,0.271
0.0024,0.0024,0.0024,0.0024,0.0024,0.0024,0.9082,0.1807,0.0024,0.2734
0.0024,0.0024,0.0024,0.0024,0.0024,0.022,1.0669,0.1489,0.0024,0.2783
0.0024,0.0024,0.0024,0.0024,0.0024,0.0049,1.1133,0.1221,0.0024,0.3125
0.0024,0.0024,0.0024,0.0024,0.0024,0.0073,1.0718,0.1367,0.0024,0.2856
0.0024,0.0024,0.0024,0.0024,0.0024,0.0195,0.9717,0.1367,0.0024,0.2441
0.0024,0.0024,0.0024,0.0024,0.0024,0.0146,0.9375,0.105,0.0024,0.2686
0.0024,0.0024,0.0024,0.0024,0.0024,0.0098,1.0596,0.1245,0.0024,0.2759
0.0024,0.0024,0.0024,0.0024,0.0024,0.0098,0.9253,0.1392,0.0024,0.2637
0.0073,0.0024,0.0024,0.0024,0.0049,0.0146,1.1475,0.1685,0.0024,0.2661
0.0098,0.0024,0.0024,0.0024,0.0024,0.0195,1.25,0.1563,0.0024,0.2759
0.0073,0.0024,0.0024,0.0024,0.0024,0.0171,0.9839,0.1904,0.0024,0.2832
0.0024,0.0024,0.0024,0.0024,0.0024,0.0342,1.2378,0.1367,0.0024,0.2734
0.0024,0.0024,0.0024,0.0024,0.0024,0.0366,1.1548,0.1147,0.0024,0.2783
0.0024,0.0024,0.0024,0.0024,0.0024,0.0171,1.1353,0.1465,0.0024,0.2881
0.0024,0.0024,0.0024,0.0024,0.0024,0.0244,1.2964,0.1807,0.0024,0.2588
0.0122,0.0024,0.0024,0.0024,0.0024,0.0269,1.9507,0.1953,0.0024,0.2637
0.0269,0.0024,0.0415,0.0024,0.0049,0.0464,0.3711,0.2246,0.0586,0.3027
0.022,0.0024,0.0586,0.0024,0.0024,0.0537,0.3931,0.2222,0.0635,0.3101
0.0244,0.0073,0.0195,0.0024,0.0024,0.0537,0.4272,0.2368,0.0195,0.3076
0.0122,0.0244,0.0342,0.0024,0.0024,0.022,0.3687,0.2466,0.0659,0.271
0.0146,0.0195,0.0391,0.0024,0.0024,0.0415,0.4346,0.249,0.0757,0.2783
0.022,0.0024,0.0024,0.0024,0.0049,0.0488,0.5176,0.2563,0.0269,0.2734
0.0146,0.0024,0.0024,0.0024,0.0024,0.0171,0.3857,0.2246,0.0024,0.2881
0.0073,0.0024,0.0024,0.0024,0.0024,0.0269,0.4395,0.2173,0.0024,0.3076
0.0073,0.0024,0.0024,0.0024,0.0049,0.0244,0.4468,0.2124,0.0024,0.3101
0.0122,0.0024,0.0024,0.0024,0.0024,0.0195,0.437,0.2197,0.0024,0.3027
0.0098,0.0024,0.0024,0.0024,0.0024,0.0317,0.3955,0.2197,0.0024,0.2759
0.0244,0.0024,0.0049,0.0024,0.0024,0.0488,0.3979,0.2588,0.0024,0.2881
0.022,0.0024,0.0024,0.0024,0.0024,0.0903,1.0132,0.2759,0.0024,0.2661
0.0024,0.0024,0.0024,0.0024,0.0024,0.0464,0.293,0.2271,0.0024,0.2515
0.0024,0.0024,0.0024,0.0024,0.0024,0.061,0.8081,0.2856,0.0024,0.2637
0.2124,0.0024,0.0024,0.0024,0.0024,0.0781,1.3013,0.2686,0.0024,0.2686
0.1514,0.0024,0.0049,0.0024,0.0024,0.0757,0.9717,0.2637,0.0024,0.2563
0.0146,0.0024,0.0024,0.0024,0.0024,0.0732,0.6689,0.2173,0.0024,0.2563
0.0049,0.0024,0.0049,0.0024,0.0024,0.0293,0.4492,0.2368,0.0024,0.2515
0.0024,0.0024,0.0024,0.0024,0.0024,0.0342,0.2051,0.21,0.0024,0.2588
0.0171,0.0024,0.0024,0.0024,0.0024,0.0342,0.4028,0.2759,0.0024,0.2783
0.0073,0.0024,0.0049,0.0024,0.0024,0.0635,0.5396,0.2295,0.0024,0.2759
0.0293,0.0024,0.0024,0.0024,0.0024,0.1147,0.8105,0.2563,0.0024,0.2905
0.0293,0.0024,0.0024,0.0024,0.0024,0.1172,0.5908,0.2954,0.0024,0.354
0.0513,0.0024,0.0024,0.0024,0.0024,0.1343,0.7617,0.2637,0.0024,0.3516
0.0513,0.0024,0.0024,0.0024,0.0024,0.0635,0.4175,0.2319,0.0024,0.2515
0.0391,0.0024,0.0024,0.0024,0.0024,0.0659,0.9546,0.2051,0.0024,0.2686
0.0024,0.0024,0.0024,0.0024,0.0024,0.0366,0.3076,0.1855,0.0024,0.2515
0.0073,0.0024,0.0024,0.0024,0.0024,0.0586,0.5347,0.1904,0.0024,0.2637
0.0122,0.0024,0.0024,0.0024,0.0024,0.083,0.4224,0.2124,0.0024,0.2686
0.0146,0.0024,0.0024,0.0024,0.0024,0.0854,0.3809,0.2148,0.0024,0.2734
0.0122,0.0024,0.0024,0.0024,0.0024,0.0806,0.5103,0.2002,0.0024,0.2808
0.0098,0.0024,0.0049,0.0024,0.0049,0.061,0.4077,0.2051,0.0024,0.2783
0.0122,0.0024,0.0024,0.0049,0.0024,0.0537,0.3638,0.2344,0.0024,0.2808
0.0024,0.0024,0.0024,0.0024,0.0049,0.061,0.5322,0.1929,0.0024,0.2954
0.0049,0.0024,0.0024,0.0024,0.0024,0.0635,0.4468,0.1587,0.0024,0.2905
0.0024,0.0024,0.0024,0.0024,0.0024,0.0513,0.437,0.166,0.0024,0.2856
0.0024,0.0024,0.0024,0.0024,0.0024,0.0342,0.2856,0.1538,0.0024,0.2612
0.0024,0.0024,0.0024,0.0024,0.0024,0.0464,0.3101,0.2148,0.0024,0.2686
0.0024,0.0024,0.0024,0.0024,0.0024,0.0269,0.2539,0.1611,0.0024,0.2808
0.0073,0.0024,0.0024,0.0024,0.0024,0.0342,0.2637,0.188,0.0024,0.2783
0.0024,0.0024,0.0024,0.0024,0.0024,0.0195,0.5591,0.2173,0.0024,0.2661
0.0024,0.0024,0.0024,0.0024,0.0049,0.0293,0.4541,0.2002,0.0024,0.271
0.0024,0.0024,0.0024,0.0024,0.0024,0.0244,0.271,0.1367,0.0024,0.2759
0.0024,0.0024,0.0024,0.0024,0.0024,0.022,0.1074,0.1514,0.0024,0.2856
0.0024,0.0024,0.0024,0.0024,0.0024,0.0098,0.0488,0.1245,0.0049,0.2856
0.0024,0.0024,0.0024,0.0024,0.0024,0.022,0.0562,0.1392,0.0024,0.2637
0.0024,0.0024,0.0024,0.0024,0.0024,0.0415,0.0562,0.1538,0.0024,0.2588
0.0024,0.0024,0.0024,0.0024,0.0024,0.0195,0.061,0.1392,0.0024,0.2612
0.0024,0.0024,0.0024,0.0024,0.0024,0.022,0.0439,0.144,0.0024,0.2637
0.0024,0.0024,0.0049,0.0024,0.0024,0.0708,0.0635,0.1221,0.0024,0.3052
0.0024,0.0024,0.0024,0.0024,0.0024,0.0391,0.0684,0.1611,0.0024,0.2856
0.0024,0.0024,0.0024,0.0024,0.0049,0.0317,0.0635,0.1489,0.0024,0.2808
0.0024,0.0024,0.0024,0.0024,0.0024,0.022,0.0513,0.1538,0.0024,0.2734
0.0073,0.0024,0.0024,0.0024,0.0024,0.0317,0.0708,0.1855,0.0024,0.2734
0.0024,0.0024,0.0024,0.0024,0.0024,0.0366,0.0732,0.1538,0.0024,0.2832
0.0024,0.0024,0.0024,0.0024,0.0024,0.0171,0.0586,0.1416,0.0024,0.271
0.0024,0.0024,0.0024,0.0024,0.0024,0.0244,0.0684,0.1758,0.0024,0.249
0.0024,0.0024,0.0024,0.0024,0.0024,0.0122,0.0806,0.127,0.0024,0.2905
0.0024,0.0024,0.0024,0.0024,0.0024,0.0488,0.0537,0.1294,0.0024,0.2686
0.0024,0.0024,0.0024,0.0024,0.0024,0.0415,0.1758,0.1538,0.0024,0.2759
0.0024,0.0024,0.0024,0.0024,0.0024,0.0488,0.1782,0.1538,0.0024,0.3076
0.0024,0.0024,0.0024,0.0024,0.0024,0.0439,0.1636,0.1465,0.0024,0.2954
0.0024,0.0024,0.0024,0.0024,0.0024,0.0464,0.1221,0.1538,0.0024,0.293
0.0024,0.0024,0.0024,0.0024,0.0024,0.0439,0.1172,0.1538,0.0024,0.293
0.0024,0.0024,0.0024,0.0024,0.0024,0.0366,0.0757,0.1733,0.0024,0.2832
0.0024,0.0024,0.0024,0.0024,0.0024,0.0415,0.2393,0.1709,0.0024,0.2466
0.0024,0.0024,0.0024,0.0024,0.0024,0.0366,0.1978,0.1514,0.0024,0.2563
0.0024,0.0024,0.0024,0.0024,0.0024,0.0244,0.127,0.1563,0.0024,0.2588
0.0024,0.0024,0.0024,0.0024,0.0024,0.0293,0.144,0.1538,0.0024,0.2661
0.0024,0.0024,0.0024,0.0024,0.0024,0.0073,0.1538,0.1221,0.0024,0.2905
0.0024,0.0024,0.0024,0.0024,0.0024,0.0098,0.1343,0.1123,0.0024,0.2832
0.0049,0.0024,0.0024,0.0024,0.0024,0.0195,0.1074,0.1294,0.0073,0.2612
0.0024,0.0024,0.0024,0.0024,0.0024,0.0293,0.0977,0.1318,0.0024,0.2539
0.0024,0.0024,0.0024,0.0024,0.0024,0.0293,0.1074,0.1343,0.0024,0.2539
0.0024,0.0024,0.0024,0.0024,0.0024,0.0659,0.1758,0.1245,0.0024,0.2783
0.0366,0.0024,0.0024,0.0024,0.0049,0.0464,0.3516,0.2344,0.0024,0.2832
0.0342,0.0024,0.0024,0.0024,0.0024,0.0439,0.564,0.2246,0.0049,0.2734
0.0732,0.0024,0.0024,0.0024,0.0024,0.0732,0.6787,0.2515,0.0024,0.2661
0.0439,0.0024,0.0024,0.0024,0.0024,0.0903,0.4932,0.2026,0.0024,0.2539
0.0464,0.0024,0.0049,0.0024,0.0024,0.0757,0.415,0.2075,0.0024,0.271
0.0122,0.0024,0.0024,0.0024,0.0024,0.061,0.3394,0.2222,0.0024,0.3003
0.0049,0.0024,0.0024,0.0024,0.0024,0.0439,0.3198,0.2026,0.0024,0.3052
0.0024,0.0024,0.0024,0.0024,0.0024,0.0391,0.3003,0.2026,0.0024,0.2954
0.0024,0.0024,0.0024,0.0024,0.0024,0.0366,0.3442,0.1953,0.0024,0.2856
0.0024,0.0024,0.0024,0.0024,0.0024,0.0562,0.2979,0.2002,0.0024,0.2466
0.0049,0.0024,0.0024,0.0024,0.0024,0.0391,0.1636,0.1587,0.0024,0.2808
0.0024,0.0024,0.0024,0.0024,0.0024,0.0439,0.1538,0.188,0.0024,0.2808
0.0024,0.0024,0.0024,0.0024,0.0024,0.0391,0.1245,0.1929,0.0024,0.2588
0.1025,1.4087,0.979,0.0317,0.0073,0.0952,1.3428,0.2441,1.1255,0.2417
0.105,1.3599,0.9277,0.0122,0.0098,0.1196,1.4844,0.249,1.0059,0.2661
0.0586,1.3843,0.7373,0.0098,0.0024,0.1001,1.3037,0.2539,0.8301,0.2441
0.1172,1.4063,0.7275,0.0269,0.0098,0.1294,1.1865,0.2173,0.8447,0.2417
0.0928,1.2695,0.8838,0.0244,0.0024,0.1172,1.2012,0.2173,0.9473,0.249
0.0781,1.123,0.8447,0.0244,0.0073,0.1538,1.3428,0.2173,0.9375,0.2222
0.1001,1.1646,0.9131,0.0293,0.0073,0.1611,1.2451,0.2393,1.084,0.2124
0.0854,1.0059,0.8691,0.0342,0.0195,0.166,1.4404,0.2393,1.0889,0.2075
0.0732,0.9644,0.7617,0.022,0.0098,0.1367,1.4722,0.2319,0.813,0.2441
0.0659,0.9595,0.7202,0.0171,0.0073,0.127,1.5137,0.2222,0.8521,0.2466
0.0635,1.0571,0.7861,0.0195,0.0073,0.1343,1.5063,0.1953,0.9155,0.2466
0.0586,0.9961,0.7886,0.0146,0.0049,0.1294,1.3477,0.2295,0.835,0.2344
0.0684,0.9399,0.8203,0.0122,0.0024,0.1074,1.3672,0.2173,0.7056,0.2271
0.0684,1.0278,0.7837,0.0098,0.0024,0.1001,1.2646,0.2075,0.6372,0.2295
0.0781,0.9937,0.8057,0.0073,0.0024,0.0879,1.2769,0.2515,0.6958,0.2393
0.0708,0.8081,0.6714,0.0073,0.0024,0.0952,0.8765,0.2124,0.7275,0.2417
0.0317,0.4468,0.3174,0.0049,0.0024,0.0659,1.0889,0.2124,0.3979,0.2295
0.022,0.3711,0.2808,0.0024,0.0024,0.0488,0.9253,0.1953,0.3784,0.2197
0.0024,0.0488,0.0903,0.0024,0.0024,0.0391,0.8032,0.1245,0.1392,0.2393
0.0122,0.1367,0.1904,0.0024,0.0024,0.0366,0.9229,0.1636,0.3174,0.2441
0.0098,0.1074,0.1807,0.0024,0.0024,0.0391,0.7959,0.1685,0.293,0.2319
0.0049,0.083,0.1538,0.0024,0.0024,0.0366,0.7666,0.1733,0.2539,0.2246
0.0098,0.0024,0.0024,0.0024,0.0024,0.0171,0.9448,0.1782,0.0098,0.2222
0.0049,0.0024,0.0024,0.0024,0.0024,0.0171,0.9473,0.1807,0.0024,0.2197
0.0024,0.0024,0.0024,0.0024,0.0024,0.0098,0.8032,0.1538,0.0024,0.2368
0.0024,0.0293,0.0586,0.0024,0.0024,0.0195,0.6421,0.1489,0.0708,0.2124
0.0049,0.0391,0.0537,0.0024,0.0024,0.0244,0.7544,0.1563,0.0781,0.2222
0.0024,0.0903,0.1489,0.0024,0.0024,0.022,0.4443,0.1245,0.1221,0.2344
0.0024,0.022,0.0806,0.0024,0.0024,0.022,0.4883,0.1392,0.0562,0.2222
0.0024,0.0439,0.0537,0.0024,0.0024,0.0293,0.708,0.1172,0.0537,0.2393
0.0024,0.0366,0.0366,0.0024,0.0024,0.0269,0.708,0.1147,0.0391,0.2441
0.0024,0.0293,0.0244,0.0024,0.0024,0.022,0.6714,0.1172,0.0244,0.2466
0.0024,0.0562,0.1709,0.0024,0.0024,0.0122,0.5957,0.1318,0.127,0.2417
0.0024,0.0854,0.1733,0.0024,0.0024,0.0122,0.4395,0.1147,0.1392,0.2246
0.0024,0.0854,0.1489,0.0024,0.0024,0.0195,0.5688,0.1123,0.1538,0.2246
0.0024,0.1172,0.1611,0.0024,0.0024,0.0317,0.5664,0.1392,0.1782,0.21
0.0024,0.2148,0.249,0.0024,0.0024,0.0439,0.4932,0.1733,0.249,0.2295
0.0073,0.2466,0.293,0.0024,0.0024,0.0317,0.5029,0.1758,0.2295,0.2319
0.0049,0.2368,0.2832,0.0024,0.0024,0.0269,0.5176,0.1758,0.2368,0.2319
0.0073,0.2686,0.3198,0.0024,0.0024,0.0122,0.4224,0.1953,0.2808,0.2246
0.0098,0.2563,0.3174,0.0024,0.0024,0.0122,0.4272,0.2002,0.2686,0.2319
0.0073,0.2612,0.2832,0.0024,0.0024,0.0244,0.5176,0.1904,0.2539,0.2319
0.0024,0.2344,0.2393,0.0024,0.0024,0.0342,0.5737,0.2002,0.2466,0.2393
0.0024,0.2734,0.3149,0.0024,0.0024,0.0244,0.6763,0.1733,0.2905,0.2319
0.0024,0.2612,0.2637,0.0024,0.0024,0.0415,0.5933,0.166,0.2441,0.2148
0.0049,0.2832,0.2637,0.0024,0.0024,0.0366,0.6934,0.1611,0.2588,0.2271
0.0122,0.3052,0.2856,0.0024,0.0024,0.0439,0.7886,0.1807,0.3149,0.2173
0.0098,0.2979,0.2954,0.0024,0.0024,0.0342,0.7007,0.188,0.3345,0.2222
0.0122,0.3003,0.3589,0.0024,0.0024,0.0293,0.5957,0.2319,0.4395,0.2344
0.0146,0.4077,0.4443,0.0024,0.0024,0.0366,0.6372,0.2246,0.5273,0.2295
0.0244,0.4077,0.4321,0.0024,0.0024,0.0317,0.6079,0.2344,0.5103,0.2026
0.0171,0.4199,0.5005,0.0024,0.0024,0.0342,0.6152,0.2368,0.5615,0.2002
0.0757,0.9473,0.7007,0.0049,0.0024,0.0635,0.7544,0.2173,0.8154,0.2295
0.0806,0.9546,0.7593,0.0024,0.0024,0.0586,0.7471,0.2417,0.835,0.2246
0.0928,0.9082,0.7202,0.0049,0.0024,0.0562,0.7349,0.2734,0.7788,0.2222
0.083,1.1426,0.7568,0.0171,0.0024,0.0952,1.1328,0.2905,0.7153,0.2295
0.0757,1.145,0.7324,0.0073,0.0024,0.0708,1.0938,0.2295,0.7593,0.2393
0.061,0.9106,0.6494,0.0024,0.0024,0.0659,0.9448,0.2148,0.7593,0.2393
0.061,1.062,0.7129,0.0049,0.0024,0.0586,0.9351,0.2051,0.7837,0.2173
0.0562,1.1841,0.6909,0.0024,0.0049,0.0708,1.1426,0.2124,0.5029,0.2075
0.0879,1.1572,0.7422,0.0049,0.0024,0.0659,1.1353,0.3174,0.52,0.2197
0.0806,1.1133,0.6641,0.0098,0.0024,0.0684,1.123,0.2979,0.5371,0.2368
0.0806,1.0571,0.6958,0.0122,0.0024,0.061,1.0107,0.2954,0.7129,0.2295
0.0732,1.0132,0.647,0.0146,0.0073,0.0586,1.1499,0.3076,0.7446,0.2173
0.0464,0.813,0.5615,0.0024,0.0024,0.0439,0.8887,0.3076,0.6104,0.2173
0.0366,0.8154,0.5469,0.0024,0.0024,0.0366,0.9302,0.2856,0.5078,0.2417
0.0269,0.5664,0.2759,0.0024,0.0024,0.0464,0.8228,0.1807,0.4883,0.2173
0.0244,0.5737,0.4297,0.0049,0.0024,0.0317,0.6787,0.1831,0.4077,0.2197
0.0366,0.293,0.2319,0.0024,0.0024,0.022,1.2866,0.2197,0.2954,0.2319
0.0391,0.4395,0.3931,0.0073,0.0024,0.022,1.2891,0.2148,0.4004,0.2393
0.0391,0.4614,0.4077,0.0049,0.0049,0.0269,1.1792,0.2222,0.415,0.2441
0.0293,0.3296,0.271,0.0024,0.0024,0.0415,1.2036,0.2246,0.2979,0.2393
0.0024,0.0854,0.0317,0.0024,0.0024,0.022,1.0913,0.144,0.0464,0.2295
0.0171,0.0757,0.1416,0.0024,0.0024,0.0171,0.8545,0.1685,0.0464,0.2344
0.0024,0.0024,0.0024,0.0024,0.0024,0.022,1.2427,0.1343,0.0024,0.2271
0.0024,0.0024,0.0244,0.0024,0.0024,0.0269,0.9863,0.1318,0.0024,0.2271
0.0073,0.0366,0.0562,0.0024,0.0024,0.0293,0.9424,0.1367,0.0757,0.2344
0.0049,0.0049,0.0659,0.0024,0.0024,0.0391,1.2402,0.1611,0.0757,0.2222
0.0049,0.0586,0.0659,0.0024,0.0024,0.0415,1.1011,0.1538,0.1099,0.2075
0.0024,0.1367,0.083,0.0024,0.0024,0.0439,1.1499,0.1587,0.144,0.2246
0.0024,0.0537,0.0195,0.0024,0.0024,0.0562,1.0864,0.1367,0.0977,0.2539
0.0024,0.0757,0.1025,0.0024,0.0024,0.0488,1.1011,0.1343,0.1392,0.2417
0.0024,0.144,0.0854,0.0024,0.0024,0.0464,1.1182,0.144,0.1245,0.2319
0.0073,0.1782,0.2002,0.0024,0.0024,0.0342,1.0596,0.1538,0.1831,0.2295
0.0024,0.1196,0.2002,0.0024,0.0024,0.0513,0.9253,0.1538,0.1904,0.2124
0.0171,0.1929,0.2197,0.0024,0.0024,0.0513,0.7788,0.1782,0.2881,0.2222
0.0195,0.3662,0.3735,0.0024,0.0049,0.0635,0.979,0.1929,0.4077,0.2148
0.022,0.3711,0.3589,0.0024,0.0024,0.0586,0.8887,0.2051,0.4053,0.2148
0.0342,0.6079,0.459,0.0024,0.0024,0.0586,1.1279,0.2417,0.5151,0.2173
0.0317,0.603,0.4102,0.0024,0.0024,0.0562,1.0327,0.2393,0.4785,0.2222
0.0415,0.6909,0.4639,0.0024,0.0024,0.0439,1.0742,0.2588,0.5542,0.2393
0.0342,0.6592,0.4834,0.0024,0.0024,0.0464,1.1621,0.2393,0.5737,0.2319
0.0415,0.6299,0.498,0.0024,0.0024,0.0708,1.1914,0.2222,0.5273,0.2124
0.0513,0.7251,0.5762,0.0024,0.0024,0.0781,1.3745,0.2124,0.5029,0.2271
0.0488,0.7129,0.6543,0.0024,0.0024,0.0977,1.4258,0.2124,0.498,0.2417
0.0562,0.8887,0.7251,0.0049,0.0024,0.1465,2.6001,0.2783,0.7446,0.2344
0.0635,0.8862,0.7397,0.0049,0.0024,0.1538,2.6782,0.2856,0.7324,0.2368
0.0708,0.9375,0.7202,0.0073,0.0024,0.1465,2.561,0.293,0.6665,0.2246
0.0952,1.4087,0.8154,0.022,0.0049,0.1465,2.2168,0.2979,1.1108,0.2319
0.1001,1.4282,0.8325,0.0269,0.0073,0.1587,2.1851,0.2905,1.1865,0.2344
0.0781,1.0742,0.9106,0.0244,0.0098,0.2026,2.4976,0.3198,1.0327,0.2368
0.0806,1.0303,0.9033,0.0244,0.0073,0.1465,2.4268,0.3296,1.0645,0.2295
0.105,1.1938,0.8911,0.0244,0.0146,0.1904,2.6563,0.3296,1.0278,0.2173
0.0781,1.0449,0.8179,0.0146,0.0122,0.1636,2.6538,0.3101,0.9155,0.2319
0.0806,1.0718,0.8691,0.0098,0.0098,0.1636,2.8149,0.3296,1.1279,0.2295
0.0732,0.9741,0.8911,0.0122,0.0098,0.1538,2.5195,0.2808,0.9814,0.2295
0.0635,1.0449,0.8862,0.0098,0.0073,0.1025,1.8042,0.2295,0.6543,0.2441
0.0513,0.9399,0.6836,0.0024,0.0024,0.1172,1.8286,0.2319,0.5469,0.249
0.0684,0.7324,0.7666,0.0195,0.0024,0.1147,1.7676,0.2588,0.481,0.2417
0.0513,0.4932,0.4858,0.0024,0.0024,0.0806,1.6846,0.2271,0.3271,0.2271
0.0195,0.4272,0.459,0.0049,0.0024,0.0537,1.3477,0.1636,0.5176,0.2197
0.0171,0.3809,0.4395,0.0024,0.0024,0.0366,1.1694,0.1611,0.5176,0.2173
0.0195,0.3345,0.3979,0.0024,0.0024,0.0391,1.145,0.1733,0.4785,0.2197
0.0195,0.2832,0.3418,0.0024,0.0024,0.0415,1.0864,0.188,0.4297,0.2197
0.0171,0.3516,0.4224,0.0024,0.0024,0.0439,1.2305,0.1929,0.354,0.2319
0.0171,0.3979,0.5005,0.0024,0.0024,0.0488,1.2866,0.2124,0.354,0.2124
0.0098,0.271,0.3198,0.0024,0.0024,0.0586,1.2061,0.2393,0.2612,0.2075
0.0122,0.2734,0.2686,0.0024,0.0024,0.0635,1.2305,0.2539,0.2368,0.2075
0.0195,0.2319,0.188,0.0024,0.0049,0.0684,1.2378,0.2417,0.2368,0.2124
0.0269,0.2222,0.2417,0.0024,0.0024,0.061,1.1768,0.2319,0.3101,0.2197
0.0269,0.2051,0.2612,0.0024,0.0024,0.0562,1.1255,0.2295,0.3271,0.2173
0.0146,0.2515,0.2612,0.0024,0.0024,0.0586,1.2305,0.2222,0.271,0.2051
0.0024,0.105,0.1172,0.0024,0.0024,0.0586,1.1475,0.1782,0.1367,0.21
0.0049,0.127,0.249,0.0024,0.0024,0.0415,0.8716,0.2002,0.1758,0.2075
0.0073,0.0073,0.0757,0.0024,0.0024,0.0562,1.167,0.21,0.0464,0.2344
0.0024,0.0024,0.0586,0.0024,0.0024,0.0415,1.1255,0.188,0.0659,0.2515
0.0269,0.0635,0.1147,0.0024,0.0024,0.0488,1.1206,0.2148,0.1367,0.2148
0.0195,0.0024,0.0195,0.0024,0.0024,0.0293,1.1108,0.188,0.0415,0.2124
0.0122,0.0024,0.0317,0.0024,0.0024,0.0342,1.0938,0.1733,0.0708,0.2173
0.0073,0.0391,0.166,0.0024,0.0024,0.0513,1.2256,0.2002,0.2319,0.2393
0.0073,0.0024,0.0293,0.0024,0.0024,0.0415,1.2646,0.2173,0.0854,0.2246
0.0146,0.0024,0.0537,0.0024,0.0024,0.0366,1.2061,0.2295,0.1025,0.2271
0.0122,0.0098,0.1318,0.0024,0.0024,0.0391,1.1621,0.2319,0.1245,0.2319
0.0024,0.0024,0.1294,0.0024,0.0024,0.0415,1.2158,0.2222,0.0977,0.2344
0.0024,0.0024,0.0781,0.0024,0.0024,0.0513,1.2476,0.2222,0.061,0.2393
0.0122,0.0024,0.0024,0.0024,0.0024,0.0391,1.2842,0.2026,0.0024,0.2393
0.022,0.0317,0.1294,0.0024,0.0024,0.0415,0.5591,0.2393,0.127,0.2124
0.0244,0.0415,0.1343,0.0024,0.0024,0.0415,0.5322,0.2515,0.1318,0.2222
0.0244,0.0488,0.1245,0.0024,0.0024,0.0391,0.4883,0.2588,0.127,0.2319
0.0146,0.0171,0.0171,0.0024,0.0024,0.0366,0.542,0.188,0.0415,0.2124
0.0024,0.0073,0.0757,0.0024,0.0024,0.0366,0.4541,0.1538,0.0806,0.2246
0.0024,0.0024,0.0952,0.0024,0.0049,0.0415,0.4688,0.1758,0.0977,0.2271
0.0146,0.0977,0.1782,0.0024,0.0024,0.0366,0.52,0.1904,0.1465,0.2319
0.0195,0.0977,0.2051,0.0024,0.0024,0.0366,0.5054,0.1929,0.1978,0.2271
0.0146,0.1587,0.1904,0.0024,0.0024,0.0513,0.4126,0.1953,0.1904,0.2173
0.0122,0.1733,0.2026,0.0024,0.0024,0.0464,0.3735,0.2051,0.1978,0.2246
0.0049,0.1465,0.2319,0.0024,0.0024,0.0586,0.4932,0.2246,0.2124,0.2246
0.0024,0.2271,0.2612,0.0024,0.0024,0.0513,0.7813,0.2417,0.3003,0.2417
0.0098,0.2417,0.2832,0.0024,0.0024,0.0513,0.7202,0.2124,0.4517,0.2271
0.0098,0.2393,0.3467,0.0024,0.0024,0.0366,0.7886,0.2148,0.5298,0.2319
0.0049,0.2246,0.332,0.0024,0.0024,0.0366,0.7788,0.2051,0.4932,0.2368
0.0049,0.3784,0.4614,0.0024,0.0024,0.0317,0.7788,0.2173,0.498,0.2222
0.0293,0.5518,0.5249,0.0049,0.0049,0.0635,0.9497,0.2271,0.5444,0.2197
0.0293,0.5908,0.5444,0.0024,0.0049,0.0635,0.9204,0.2271,0.564,0.2173
0.0635,0.7153,0.5859,0.0049,0.0024,0.0903,1.3989,0.2832,0.5713,0.2319
0.0659,0.8545,0.6445,0.0024,0.0024,0.083,1.3306,0.2808,0.603,0.249
0.0757,1.0522,0.7056,0.0049,0.0024,0.083,1.3159,0.2954,0.603,0.2368
0.0708,0.8398,0.6885,0.0024,0.0024,0.1245,1.5601,0.2295,0.6543,0.2026
0.0562,1.0181,0.6836,0.0049,0.0024,0.1123,1.6113,0.2954,0.7861,0.2295
0.0708,1.0913,0.6421,0.0073,0.0049,0.1318,1.5625,0.293,0.8398,0.2344
0.0854,1.123,0.6226,0.0098,0.0073,0.144,1.4551,0.2954,0.9351,0.2515
0.0708,0.9961,0.769,0.0195,0.0024,0.1074,1.2329,0.2832,0.8032,0.2393
0.0977,1.1792,0.6885,0.0195,0.0049,0.1465,1.4307,0.2393,0.8691,0.2344
0.0684,0.9766,0.5811,0.0024,0.0049,0.1172,1.3892,0.2759,0.6787,0.2417
0.0757,1.0938,0.5859,0.0049,0.0049,0.1245,1.3989,0.2808,0.6812,0.2441
0.0806,1.1597,0.6128,0.0073,0.0073,0.1221,1.3916,0.271,0.6714,0.249
0.0708,1.0278,0.6006,0.0049,0.0098,0.1172,1.355,0.2441,0.6201,0.2393
0.0708,0.7935,0.6885,0.0049,0.0024,0.1147,1.394,0.2441,0.7886,0.2417
0.0732,0.8008,0.6616,0.0098,0.0049,0.105,1.2695,0.2612,0.7837,0.2466
0.0757,0.8643,0.6714,0.0098,0.0049,0.1123,1.3159,0.2612,0.7813,0.2319
0.0708,0.752,0.5615,0.0049,0.0024,0.083,0.9766,0.2808,0.6104,0.2295
0.0635,0.647,0.6226,0.0049,0.0024,0.083,0.9937,0.2759,0.5396,0.2393
0.0244,0.2856,0.2661,0.0024,0.0024,0.0366,0.8374,0.2148,0.2856,0.249
0.0708,0.5835,0.625,0.0024,0.0024,0.0195,0.5835,0.1978,0.4712,0.2124
0.0635,0.5884,0.6226,0.0024,0.0024,0.0244,0.5469,0.1929,0.4688,0.2075
0.0488,0.5103,0.4858,0.0024,0.0024,0.0488,0.5713,0.2173,0.3613,0.1978
0.0342,0.3271,0.3027,0.0024,0.0024,0.0269,0.5688,0.2393,0.2905,0.2051
0.0244,0.2222,0.2051,0.0024,0.0024,0.022,0.5835,0.2295,0.1978,0.2051
0.0195,0.1709,0.1563,0.0024,0.0024,0.0195,0.5444,0.2295,0.1538,0.2075
0.0024,0.1099,0.2002,0.0024,0.0024,0.0024,0.6592,0.1563,0.2075,0.2417
0.0024,0.0562,0.1221,0.0024,0.0024,0.0195,0.9497,0.1489,0.1514,0.2271
0.0024,0.0244,0.127,0.0024,0.0024,0.0269,0.8398,0.1978,0.0928,0.21
0.0024,0.0537,0.1709,0.0024,0.0024,0.0244,0.7715,0.1855,0.1147,0.2026
0.0024,0.0122,0.0732,0.0024,0.0024,0.022,1.0352,0.1953,0.0537,0.2319
0.0024,0.0024,0.0317,0.0024,0.0024,0.0171,1.1719,0.1855,0.0195,0.2271
0.0098,0.0024,0.0098,0.0024,0.0024,0.0098,0.8691,0.1904,0.0049,0.2271
0.0024,0.0024,0.0146,0.0024,0.0024,0.0098,0.3369,0.1563,0.0098,0.2832
0.0024,0.0415,0.0415,0.0024,0.0024,0.0122,0.3271,0.1636,0.0513,0.2808
0.0024,0.105,0.0635,0.0024,0.0024,0.0122,0.354,0.1611,0.0732,0.2832
0.0098,0.1489,0.0903,0.0024,0.0024,0.0195,0.3882,0.1709,0.0781,0.2856
0.0024,0.1709,0.0977,0.0024,0.0024,0.0366,0.3564,0.1733,0.0879,0.2734
0.0098,0.0806,0.0879,0.0024,0.0024,0.0269,0.3271,0.1807,0.127,0.271
0.0098,0.1099,0.0684,0.0024,0.0024,0.0195,0.3369,0.1709,0.1147,0.2832
0.0049,0.0903,0.0562,0.0024,0.0024,0.0098,0.4297,0.1636,0.1245,0.2832
0.022,0.2075,0.1318,0.0024,0.0024,0.0415,0.4907,0.1636,0.1392,0.3101
0.0244,0.1758,0.0806,0.0024,0.0024,0.0586,0.5396,0.1831,0.0928,0.3174
0.0293,0.2173,0.1514,0.0024,0.0024,0.061,0.5078,0.2319,0.1465,0.3101
0.0244,0.2075,0.1685,0.0024,0.0024,0.0562,0.4248,0.2319,0.1733,0.2954
0.0293,0.1978,0.166,0.0024,0.0024,0.0488,0.3833,0.2295,0.1758,0.293
0.0415,0.5322,0.332,0.0024,0.0024,0.0513,0.4614,0.2588,0.3613,0.249
0.0439,0.5371,0.3418,0.0024,0.0024,0.0513,0.4468,0.2637,0.376,0.2563
0.0366,0.5078,0.3076,0.0024,0.0024,0.0513,0.3979,0.2441,0.3101,0.249
0.0391,0.4907,0.3198,0.0024,0.0024,0.0684,0.4199,0.2441,0.3198,0.2856
0.0415,0.5444,0.3223,0.0024,0.0024,0.0439,0.4712,0.2808,0.3613,0.2759
0.0342,0.5225,0.4297,0.0024,0.0024,0.0513,0.5347,0.249,0.4004,0.2808
0.0635,0.8252,0.542,0.0024,0.0024,0.0439,0.4761,0.2222,0.5835,0.2954
0.061,0.8984,0.5981,0.0024,0.0024,0.0366,0.4248,0.2173,0.5835,0.3027
0.0879,1.0303,0.5566,0.0024,0.0049,0.0586,0.9326,0.2808,0.8008,0.293
0.105,1.2158,0.6543,0.0122,0.0024,0.0732,0.9155,0.293,0.8398,0.2954
0.0928,1.3037,0.6641,0.0171,0.0024,0.0952,1.1011,0.2783,0.9009,0.293
0.1001,1.4453,0.6763,0.0146,0.0024,0.1147,1.1719,0.2588,0.7983,0.3076
0.0854,1.5161,0.6128,0.0122,0.0049,0.0977,1.2354,0.2612,0.7275,0.2832
0.0879,1.7188,0.6006,0.0317,0.0244,0.1099,1.3623,0.2954,0.9546,0.2637
0.0952,1.6113,0.6348,0.0366,0.0195,0.1196,1.4868,0.3101,0.9229,0.2856
0.1294,2.2534,0.8325,0.0488,0.0244,0.2026,1.687,0.3149,1.0156,0.2783
0.1221,2.0996,0.769,0.0415,0.022,0.2075,1.6626,0.332,0.979,0.2832
0.1074,2.4292,0.8545,0.0342,0.0171,0.1807,1.8164,0.3345,1.0181,0.2856
0.0952,2.1924,0.7813,0.0293,0.0171,0.1709,1.8457,0.3125,0.9399,0.293
0.0928,2.1313,0.7666,0.0269,0.0171,0.1636,1.9067,0.2979,0.9326,0.2881
0.0903,2.0972,0.7349,0.022,0.0171,0.1563,1.8677,0.2881,0.9082,0.2783
0.1196,2.0801,0.7813,0.0317,0.0244,0.1538,1.77,0.3101,1.0059,0.2637
0.1221,1.6138,0.7764,0.0293,0.0317,0.2002,1.8506,0.3271,0.7666,0.2832
0.1294,1.6748,0.7861,0.0293,0.0293,0.1929,1.6162,0.3247,0.7568,0.2832
0.1172,1.6113,0.7202,0.0269,0.0269,0.21,2.3291,0.3198,0.6787,0.2856
0.1172,1.5308,0.6567,0.0098,0.0122,0.1465,1.5015,0.3223,0.6763,0.2661
0.105,1.2817,0.6494,0.0171,0.0122,0.1563,1.5088,0.3149,0.6421,0.2612
0.0854,1.1304,0.603,0.0122,0.0073,0.1538,1.3477,0.2832,0.5664,0.2637
0.0732,1.1157,0.5444,0.0049,0.0024,0.1172,1.3794,0.2808,0.5322,0.293
0.0879,1.0815,0.5835,0.0024,0.0024,0.0977,1.2622,0.2563,0.5713,0.2856
0.0903,1.0449,0.5811,0.0024,0.0049,0.0854,1.3501,0.2539,0.564,0.2832
0.0854,1.0498,0.5688,0.0024,0.0024,0.0757,1.377,0.2539,0.5249,0.2881
0.0537,0.7788,0.4053,0.0024,0.0024,0.0513,1.2109,0.2637,0.3809,0.2905
0.0513,0.8667,0.498,0.0049,0.0024,0.0562,0.9229,0.2148,0.5713,0.3052
0.0562,0.6836,0.3979,0.0024,0.0024,0.0537,1.0718,0.2002,0.5151,0.2954
0.0195,0.4419,0.3052,0.0024,0.0024,0.061,1.0767,0.2002,0.4248,0.3101
0.022,0.5786,0.3857,0.0024,0.0024,0.061,1.0327,0.1953,0.481,0.3198
0.0171,0.6055,0.4077,0.0024,0.0024,0.0513,0.8472,0.1782,0.5469,0.3149
0.0244,0.3564,0.3003,0.0024,0.0024,0.0586,0.8057,0.1831,0.3687,0.271
0.0073,0.1758,0.2148,0.0024,0.0024,0.0317,0.8203,0.1685,0.2539,0.2856
0.0049,0.1514,0.2197,0.0024,0.0024,0.0317,0.9033,0.166,0.2246,0.293
0.0098,0.1929,0.271,0.0024,0.0024,0.0439,1.0498,0.2148,0.3662,0.2905
0.0073,0.144,0.2686,0.0024,0.0024,0.0366,0.9155,0.1953,0.3125,0.2686
0.0024,0.0879,0.21,0.0024,0.0024,0.0293,0.9888,0.1611,0.2563,0.271
0.0073,0.0024,0.0195,0.0024,0.0024,0.0586,1.3379,0.2246,0.061,0.2783
0.0171,0.0024,0.0073,0.0024,0.0024,0.0439,1.3892,0.2393,0.0269,0.2759
0.0195,0.0024,0.0049,0.0024,0.0024,0.0415,1.2769,0.2344,0.0269,0.2759
0.0269,0.0024,0.0024,0.0024,0.0024,0.0366,1.3428,0.2026,0.0024,0.2856
0.0195,0.0024,0.0415,0.0024,0.0024,0.0342,0.2637,0.2148,0.0293,0.2686
0.0073,0.2686,0.2222,0.0024,0.0024,0.0464,0.4932,0.2148,0.1904,0.2661
0.0024,0.2783,0.1343,0.0024,0.0024,0.0366,0.4614,0.1538,0.1904,0.3149
0.0024,0.2979,0.1172,0.0024,0.0049,0.0317,0.5005,0.1489,0.1758,0.3149
0.0122,0.3589,0.2344,0.0024,0.0049,0.0439,0.3857,0.1709,0.3296,0.293
0.0513,0.6372,0.4175,0.0024,0.0024,0.0415,1.1206,0.3003,0.52,0.2808
0.0537,0.8423,0.5835,0.0024,0.0024,0.0635,1.1011,0.2783,0.7007,0.2783
0.0562,0.9155,0.542,0.0024,0.0024,0.0586,1.1426,0.2417,0.5884,0.2905
0.0684,0.9473,0.5835,0.0024,0.0024,0.0586,1.3013,0.2686,0.6348,0.2856
0.061,0.9302,0.6274,0.0024,0.0024,0.0659,1.1646,0.249,0.7178,0.2832
0.0635,1.0254,0.5542,0.0049,0.0024,0.0977,1.0278,0.2319,0.6836,0.2832
0.061,1.0303,0.5811,0.0049,0.0024,0.1001,1.0522,0.2344,0.6885,0.2832
0.0732,1.0791,0.6201,0.0024,0.0024,0.0952,1.0303,0.2417,0.6885,0.2808
0.0757,1.1475,0.6689,0.0024,0.0024,0.0854,1.1133,0.2686,0.6055,0.2686
0.0732,1.1963,0.6177,0.0024,0.0024,0.0757,1.1621,0.2319,0.7129,0.3076
0.1001,1.3672,0.6812,0.0195,0.0146,0.1221,0.9912,0.249,0.7056,0.293
0.0977,1.3159,0.6543,0.0146,0.0146,0.1172,0.9839,0.2515,0.6665,0.2808
0.0977,1.2402,0.6567,0.0122,0.0171,0.1172,0.9912,0.2466,0.6348,0.271
0.0903,1.2549,0.7251,0.022,0.0195,0.1147,1.2183,0.2075,0.7251,0.3003
0.0781,1.0742,0.4761,0.0049,0.0098,0.1489,1.3818,0.2515,0.791,0.271
0.0903,1.0742,0.5127,0.0073,0.0049,0.1294,1.3306,0.2417,0.6958,0.2734
0.1025,1.1206,0.6299,0.0146,0.0098,0.1196,1.3428,0.2319,0.7471,0.2734
0.105,1.4429,0.813,0.0171,0.0024,0.105,1.2085,0.2637,0.7813,0.2954
0.0732,1.1963,0.7251,0.0098,0.0024,0.1123,0.9351,0.249,0.7837,0.2759
0.0586,0.8618,0.6763,0.0024,0.0024,0.0513,0.9668,0.249,0.5542,0.2734
0.0635,1.0034,0.6641,0.0024,0.0024,0.0488,1.0229,0.2905,0.6152,0.2832
0.061,0.9937,0.6592,0.0024,0.0024,0.0513,1.084,0.2783,0.5957,0.2881
0.061,0.813,0.5908,0.0024,0.0024,0.0708,0.9595,0.2539,0.5688,0.2661
0.0635,0.9155,0.5273,0.0024,0.0024,0.0732,1.2109,0.2417,0.4956,0.293
0.0415,0.7959,0.5298,0.0024,0.0049,0.0732,1.0571,0.2344,0.4663,0.3076
0.0415,0.813,0.5249,0.0024,0.0024,0.1025,1.2744,0.2637,0.4858,0.3027
0.0439,0.835,0.4565,0.0024,0.0024,0.061,0.9692,0.2124,0.437,0.293
0.0488,0.7324,0.4077,0.0024,0.0024,0.0635,0.9351,0.2002,0.4517,0.2979
0.0415,0.5591,0.4102,0.0024,0.0024,0.0537,0.9155,0.1953,0.4443,0.2905
0.0391,0.4663,0.3516,0.0024,0.0049,0.0513,0.9937,0.2246,0.4517,0.2808
0.0317,0.3882,0.3101,0.0024,0.0024,0.0513,0.9009,0.2051,0.3857,0.2686
0.0244,0.3662,0.2856,0.0024,0.0024,0.0562,0.8813,0.1709,0.3442,0.2661
0.0171,0.4126,0.3076,0.0024,0.0024,0.0562,0.7593,0.2051,0.3687,0.2734
0.022,0.4297,0.2734,0.0024,0.0049,0.0464,0.9619,0.2148,0.376,0.2808
0.0024,0.144,0.0732,0.0024,0.0024,0.0293,0.8179,0.166,0.1367,0.3003
0.0024,0.0488,0.0293,0.0024,0.0024,0.0391,0.6982,0.1245,0.0854,0.2881
0.0024,0.0146,0.0391,0.0024,0.0024,0.0317,0.7788,0.1245,0.1147,0.2759
0.0024,0.0024,0.0342,0.0024,0.0024,0.0269,0.6006,0.1196,0.1172,0.2588
0.0024,0.0439,0.1416,0.0024,0.0024,0.0342,0.3833,0.1392,0.1074,0.271
0.0073,0.0806,0.1196,0.0024,0.0024,0.0366,0.5469,0.2002,0.0781,0.2881
0.0073,0.0806,0.105,0.0024,0.0024,0.0513,0.5273,0.2173,0.0732,0.2905
0.0073,0.0049,0.0024,0.0024,0.0024,0.0366,0.3174,0.1855,0.0024,0.2832
0.0024,0.0024,0.0024,0.0024,0.0024,0.022,0.2686,0.1587,0.0024,0.2686
0.0146,0.1489,0.0439,0.0024,0.0024,0.0732,0.6323,0.1855,0.0806,0.2686
0.0195,0.1294,0.0391,0.0024,0.0024,0.0757,0.6836,0.1978,0.0854,0.2637
0.0195,0.105,0.0488,0.0024,0.0024,0.0903,0.7349,0.1978,0.0781,0.2686
0.0146,0.1489,0.0854,0.0024,0.0024,0.0684,0.5103,0.1807,0.1025,0.2905
0.0024,0.0806,0.0439,0.0024,0.0024,0.0293,0.4028,0.1489,0.061,0.2661
0.0024,0.0635,0.0342,0.0024,0.0024,0.0317,0.4102,0.1538,0.0537,0.2588
0.0024,0.1025,0.1172,0.0024,0.0024,0.0391,0.6104,0.1392,0.1221,0.2759
0.0146,0.1855,0.1587,0.0024,0.0024,0.0366,0.3394,0.1782,0.188,0.2588
0.0122,0.1807,0.1538,0.0024,0.0024,0.0391,0.3198,0.1733,0.1831,0.2588
0.0195,0.1709,0.2148,0.0024,0.0049,0.0439,0.3174,0.1709,0.1953,0.2612
0.0171,0.2344,0.2026,0.0024,0.0024,0.0342,0.437,0.1782,0.1709,0.2661
0.0146,0.2222,0.1685,0.0024,0.0024,0.0269,0.3931,0.1929,0.1611,0.2832
0.0073,0.3735,0.3149,0.0024,0.0024,0.0391,0.3394,0.1733,0.3149,0.2612
0.0195,0.4395,0.4126,0.0024,0.0024,0.061,0.6519,0.1685,0.3101,0.271
0.0146,0.4468,0.376,0.0024,0.0024,0.0513,0.5737,0.1538,0.2979,0.2612
0.0098,0.459,0.3931,0.0024,0.0049,0.0513,0.5835,0.1733,0.3784,0.2881
0.0098,0.3906,0.4297,0.0024,0.0024,0.0439,0.5176,0.1782,0.4053,0.2979
0.0146,0.3638,0.3784,0.0024,0.0024,0.0366,0.5933,0.1807,0.3882,0.2881
0.0269,0.3784,0.3516,0.0024,0.0024,0.0342,0.7178,0.1978,0.4053,0.293
0.0293,0.4248,0.3711,0.0024,0.0024,0.0415,0.6836,0.1855,0.4126,0.2783
0.0244,0.4346,0.4004,0.0024,0.0024,0.0537,0.6421,0.1733,0.4346,0.2783
0.0195,0.4248,0.4102,0.0024,0.0024,0.0562,0.625,0.1807,0.4297,0.2759
0.0171,0.4224,0.4004,0.0024,0.0024,0.061,0.6836,0.1782,0.4053,0.2783
0.0171,0.4541,0.4028,0.0024,0.0024,0.061,0.7227,0.1685,0.3833,0.2734
0.0366,0.6445,0.5493,0.0024,0.0024,0.0562,0.6665,0.2173,0.4956,0.2612
0.0366,0.6592,0.5469,0.0024,0.0024,0.0635,0.7495,0.2148,0.4858,0.2563
0.083,1.0498,0.6201,0.0171,0.0024,0.1245,2.1118,0.2881,0.8008,0.2539
0.1001,0.9351,0.6836,0.0122,0.022,0.1538,1.6699,0.293,0.6519,0.2979
0.0854,0.9521,0.6958,0.0122,0.022,0.144,1.6724,0.2686,0.5957,0.2979
0.0635,1.1084,0.73,0.0073,0.0195,0.144,1.5796,0.2759,0.6738,0.2832
0.0732,1.1157,0.6982,0.0146,0.022,0.1392,1.6479,0.271,0.7422,0.2954
0.0952,1.2109,0.647,0.0146,0.0146,0.1343,1.8066,0.3101,0.6128,0.2905
0.0928,1.1865,0.6348,0.0146,0.0146,0.1416,1.7627,0.3076,0.5933,0.293
0.0903,1.0889,0.6079,0.0024,0.0049,0.1392,1.709,0.2832,0.5957,0.2612
0.0928,1.0474,0.5762,0.0024,0.0073,0.1318,1.6431,0.2612,0.686,0.2563
0.1172,0.8032,0.564,0.0024,0.0024,0.1147,2.0288,0.2588,0.6616,0.2759
0.1099,0.7886,0.5542,0.0024,0.0049,0.1172,1.9824,0.2612,0.6445,0.271
0.105,0.8057,0.5469,0.0024,0.0049,0.1147,1.9507,0.271,0.6763,0.2759
0.0928,0.9766,0.5835,0.0098,0.0122,0.1709,1.8188,0.2759,0.5518,0.2759
0.0366,0.813,0.6689,0.0024,0.0073,0.127,1.3721,0.21,0.5005,0.2734
0.083,0.7813,0.5615,0.0098,0.0049,0.0928,1.1011,0.2661,0.5762,0.2905
0.0684,0.6592,0.4053,0.0024,0.0024,0.127,1.3208,0.3174,0.5151,0.2783
0.0659,0.564,0.3564,0.0024,0.0024,0.127,1.3232,0.3271,0.4834,0.2783
0.061,0.4199,0.3394,0.0024,0.0073,0.1587,1.8848,0.3027,0.4224,0.2808
0.0464,0.498,0.4224,0.0024,0.0073,0.1367,2.1704,0.2441,0.5469,0.271
0.0146,0.3906,0.4468,0.0024,0.0024,0.0684,1.1816,0.2026,0.4956,0.2734
0.0269,0.2466,0.3052,0.0024,0.0024,0.0732,1.0742,0.188,0.3613,0.2759
0.022,0.0977,0.127,0.0024,0.0024,0.0684,1.0498,0.1733,0.1587,0.271
0.0195,0.0757,0.0977,0.0024,0.0024,0.0684,1.123,0.1709,0.1343,0.2783
0.0195,0.083,0.1099,0.0024,0.0024,0.0684,1.1646,0.1685,0.1978,0.2832
0.0195,0.1147,0.144,0.0024,0.0024,0.0659,1.1255,0.1685,0.2344,0.2905
0.022,0.166,0.1831,0.0024,0.0024,0.061,1.0449,0.166,0.2588,0.2905
0.0171,0.1733,0.1782,0.0024,0.0024,0.0488,0.9766,0.144,0.2222,0.3003
0.0146,0.1221,0.127,0.0024,0.0024,0.0464,1.0132,0.1538,0.1538,0.2808
0.0171,0.0952,0.0977,0.0024,0.0024,0.0415,0.9912,0.1709,0.1196,0.2808
0.0171,0.0488,0.0513,0.0024,0.0024,0.0586,1.0742,0.188,0.0684,0.2759
0.0049,0.0024,0.0146,0.0024,0.0024,0.0903,1.3232,0.1538,0.0391,0.2832
0.0049,0.0024,0.0024,0.0024,0.0024,0.0708,1.2573,0.2124,0.0024,0.2881
0.0244,0.0024,0.0244,0.0024,0.0024,0.0122,0.1929,0.1831,0.0024,0.2686
0.0171,0.0024,0.0195,0.0049,0.0024,0.0122,0.1904,0.1709,0.0024,0.2808
0.0073,0.0024,0.0024,0.0024,0.0024,0.0122,0.2783,0.1611,0.0024,0.2954
0.0024,0.0024,0.0024,0.0024,0.0024,0.0098,0.2881,0.1587,0.0024,0.293
0.0073,0.0049,0.1099,0.0024,0.0024,0.0073,0.2881,0.1489,0.0977,0.2954
0.0195,0.0928,0.1172,0.0024,0.0024,0.022,0.2637,0.166,0.1416,0.3052
0.0146,0.1294,0.1807,0.0024,0.0024,0.0269,0.3198,0.166,0.144,0.293
0.0098,0.1343,0.1587,0.0024,0.0024,0.022,0.2856,0.1563,0.127,0.2954
0.0024,0.1416,0.1904,0.0024,0.0024,0.0366,0.293,0.1465,0.1367,0.3003
0.0146,0.1636,0.2319,0.0024,0.0024,0.0244,0.4614,0.1855,0.2197,0.2832
0.0464,0.2661,0.2197,0.0024,0.0024,0.0342,0.6104,0.2588,0.2295,0.271
0.0439,0.2783,0.1978,0.0024,0.0024,0.0342,0.6714,0.2515,0.21,0.2783
0.022,0.3149,0.2563,0.0024,0.0024,0.0366,0.6104,0.2197,0.2515,0.3101
0.022,0.3394,0.249,0.0024,0.0024,0.0366,0.7153,0.2173,0.2417,0.3101
0.0244,0.3687,0.3418,0.0024,0.0024,0.0366,0.9131,0.21,0.2588,0.2686
0.0342,0.3223,0.3394,0.0024,0.0024,0.0317,0.7788,0.1929,0.2856,0.2612
0.0366,0.3198,0.3296,0.0024,0.0024,0.0366,0.7227,0.2026,0.2783,0.2539
0.0366,0.4126,0.4297,0.0024,0.0024,0.0415,0.7031,0.1929,0.4736,0.2783
0.0415,0.4688,0.4199,0.0024,0.0024,0.0342,0.8813,0.2051,0.4858,0.2783
0.0659,0.4663,0.376,0.0024,0.0024,0.0415,0.9229,0.2222,0.4688,0.2905
0.0977,0.8862,0.6372,0.0049,0.0049,0.0952,1.0791,0.1929,0.6689,0.3101
0.0928,0.8887,0.6592,0.0073,0.0098,0.1099,1.0034,0.2026,0.7007,0.3125
0.0854,1.0229,0.7568,0.0098,0.0244,0.1465,1.2354,0.2612,0.8667,0.3003
0.0879,1.0571,0.6958,0.0024,0.022,0.1514,1.6284,0.293,0.7153,0.2979
0.1001,1.2109,0.7373,0.0122,0.0171,0.1563,1.5161,0.3003,0.6299,0.2686
0.1025,1.1621,0.7568,0.0146,0.0171,0.1587,1.5137,0.3003,0.6641,0.2661
0.0635,1.0815,0.6689,0.0073,0.0024,0.1147,1.7773,0.2124,0.6396,0.2734
0.0757,1.2427,0.7715,0.0195,0.0049,0.1147,1.5259,0.2124,0.7153,0.2783
0.083,1.0474,0.7397,0.0146,0.0073,0.1416,1.6919,0.2417,0.6543,0.2637
0.0781,1.1206,0.7617,0.0146,0.0098,0.1367,1.6284,0.2319,0.6519,0.2637
0.0586,1.0254,0.708,0.0122,0.0073,0.1172,1.4819,0.2466,0.5518,0.2661
0.0854,0.9839,0.7642,0.0146,0.0049,0.1074,1.4307,0.3174,0.6006,0.271
0.0952,0.8716,0.6006,0.0073,0.0146,0.1318,1.4575,0.2393,0.6128,0.2734
0.0781,0.8447,0.5737,0.0049,0.0049,0.0928,1.2476,0.2197,0.5688,0.271
0.061,0.8032,0.5176,0.0024,0.0024,0.127,1.2817,0.2075,0.542,0.2808
0.0586,0.7642,0.5249,0.0024,0.0049,0.1245,1.2939,0.2148,0.5493,0.2832
0.0513,0.7007,0.498,0.0024,0.0049,0.1172,1.2744,0.2148,0.542,0.2856
0.0488,0.7373,0.4639,0.0024,0.0024,0.105,1.4819,0.2002,0.5225,0.2783
0.0513,0.7446,0.5664,0.0024,0.0024,0.0977,1.2744,0.2124,0.498,0.2856
0.0269,0.6421,0.4907,0.0024,0.0024,0.0684,1.0547,0.1831,0.4688,0.293
0.0024,0.1074,0.0977,0.0024,0.0024,0.0439,1.1938,0.1563,0.1221,0.2734
0.0024,0.0757,0.0708,0.0024,0.0024,0.0391,1.1865,0.1563,0.0952,0.2612
0.0024,0.0806,0.0635,0.0024,0.0024,0.0269,0.9692,0.1563,0.0806,0.2588
0.0049,0.2515,0.105,0.0024,0.0024,0.0122,0.5273,0.1831,0.1709,0.2832
0.0317,0.4004,0.3125,0.0122,0.0024,0.0244,0.7446,0.1831,0.2881,0.271
0.0317,0.4346,0.3857,0.0073,0.0024,0.0195,0.6152,0.1733,0.2954,0.271
0.0024,0.0586,0.1001,0.0024,0.0024,0.0073,0.5981,0.1904,0.105,0.2808
0.0024,0.0293,0.0659,0.0024,0.0024,0.0073,0.5664,0.1709,0.0903,0.2808
0.0024,0.0146,0.0488,0.0024,0.0024,0.0049,0.564,0.1636,0.0757,0.2759
0.0024,0.0024,0.0342,0.0024,0.0024,0.0073,0.5591,0.1587,0.0659,0.2661
0.0049,0.0806,0.1001,0.0024,0.0024,0.0146,0.6665,0.188,0.0684,0.2759
0.0024,0.1514,0.2295,0.0024,0.0024,0.0317,0.5444,0.1782,0.127,0.2832
0.0073,0.0024,0.0171,0.0024,0.0024,0.0342,0.7959,0.1978,0.0024,0.2686
0.0073,0.0024,0.0024,0.0024,0.0024,0.0342,0.7568,0.1904,0.0024,0.271
0.0049,0.0024,0.0024,0.0024,0.0024,0.0269,0.5957,0.2173,0.0024,0.2441
0.0024,0.0073,0.0366,0.0024,0.0024,0.0195,0.1807,0.1636,0.0415,0.2515
0.0024,0.0146,0.0635,0.0024,0.0024,0.022,0.166,0.1587,0.0854,0.2661
0.0024,0.0684,0.1099,0.0024,0.0024,0.022,0.1758,0.1733,0.1538,0.2686
0.0024,0.0903,0.127,0.0024,0.0024,0.0244,0.1904,0.1709,0.1807,0.271
0.0098,0.1685,0.1416,0.0024,0.0024,0.0366,0.2417,0.1758,0.1953,0.2661
0.0049,0.0879,0.0928,0.0024,0.0024,0.0293,0.2197,0.1709,0.1343,0.2612
0.0024,0.1147,0.083,0.0024,0.0024,0.0342,0.2075,0.1416,0.1318,0.2637
0.0024,0.0879,0.0757,0.0024,0.0024,0.0244,0.2026,0.1367,0.1221,0.2539
0.0024,0.1147,0.1367,0.0024,0.0024,0.0293,0.2368,0.1587,0.1514,0.2612
0.0146,0.1416,0.1636,0.0024,0.0024,0.0391,0.2783,0.1758,0.1489,0.271
0.0098,0.1147,0.1416,0.0024,0.0024,0.0366,0.2148,0.1636,0.1416,0.2734
0.0146,0.2051,0.1855,0.0024,0.0024,0.0293,0.2344,0.1611,0.144,0.2612
0.0269,0.2222,0.2637,0.0024,0.0024,0.0366,0.2563,0.2222,0.2686,0.293
0.022,0.2466,0.2197,0.0024,0.0024,0.0415,0.2832,0.2124,0.2783,0.2905
0.022,0.2734,0.2319,0.0024,0.0024,0.0391,0.2661,0.21,0.2832,0.293
0.0244,0.2808,0.2368,0.0024,0.0024,0.0439,0.271,0.2173,0.2856,0.2905
0.0293,0.293,0.3149,0.0024,0.0024,0.0439,0.2954,0.2124,0.3345,0.2808
0.0244,0.3638,0.4077,0.0024,0.0024,0.0415,0.3027,0.2026,0.4077,0.2759
0.0098,0.3979,0.4248,0.0024,0.0024,0.0342,0.3223,0.1685,0.4663,0.2539
0.0073,0.3564,0.4102,0.0024,0.0024,0.0439,0.3101,0.166,0.4712,0.2563
0.0122,0.3589,0.4565,0.0049,0.0024,0.0366,0.3589,0.1392,0.4443,0.2588
0.0537,0.7861,0.6567,0.0024,0.0024,0.061,0.4272,0.1855,0.4858,0.2734
0.0537,0.8179,0.6519,0.0024,0.0024,0.061,0.4858,0.1782,0.5078,0.2686
0.0684,0.9351,0.6763,0.0098,0.0024,0.0537,0.752,0.2075,0.7202,0.2808
0.0781,0.9351,0.8569,0.0195,0.0073,0.0952,0.8398,0.1831,0.7251,0.2783
0.083,1.0938,0.8911,0.0146,0.0049,0.1074,1.123,0.1904,0.7202,0.2881
0.0952,1.1719,0.9058,0.0195,0.0049,0.1685,1.2524,0.2246,0.752,0.2832
0.0977,1.2915,0.9351,0.0122,0.0024,0.1294,1.2817,0.2515,0.7007,0.2808
0.0854,1.3135,0.8789,0.0073,0.0024,0.1196,1.3281,0.2466,0.6885,0.2881
0.0928,1.1987,0.7178,0.0073,0.0073,0.1294,1.687,0.2588,0.7471,0.2856
0.105,1.2451,0.8154,0.0171,0.0098,0.1489,1.6919,0.271,0.8276,0.2759
0.1147,1.2817,0.8765,0.0195,0.0122,0.1563,1.6235,0.2856,1.0474,0.2734
0.1221,1.272,0.686,0.0098,0.0024,0.1294,1.4478,0.2686,0.8716,0.3027
0.127,1.2622,0.647,0.0171,0.0146,0.1782,1.7114,0.2759,0.6787,0.3076
0.1245,1.2769,0.8057,0.0293,0.0244,0.1685,1.4355,0.2881,0.8496,0.3027
0.1099,1.1182,0.6982,0.022,0.0244,0.1636,1.2622,0.3076,0.9619,0.3076
0.0854,1.3013,0.7935,0.0024,0.0073,0.1489,1.5161,0.293,0.9058,0.2539
0.0708,0.9351,0.6519,0.0024,0.0024,0.2075,1.1914,0.2686,0.6299,0.2612
0.0586,0.8008,0.6226,0.0073,0.0024,0.1367,1.4063,0.2344,0.6177,0.2856
0.0513,0.957,0.7178,0.0024,0.0024,0.0928,1.4331,0.2222,0.6958,0.2563
0.0781,0.9839,0.7764,0.0146,0.0024,0.1245,1.1401,0.2417,0.7568,0.2979
0.083,0.9058,0.7178,0.0049,0.0024,0.1074,1.1597,0.2319,0.7129,0.2979
0.0854,0.7861,0.6665,0.0024,0.0024,0.0781,0.9106,0.2515,0.708,0.2954
0.0415,0.3003,0.2393,0.0024,0.0024,0.0439,0.8643,0.1855,0.2856,0.2881
0.0317,0.2393,0.188,0.0024,0.0024,0.0439,0.8545,0.1807,0.2295,0.2808
0.0122,0.1563,0.1172,0.0024,0.0024,0.0342,0.791,0.166,0.1416,0.2686
0.0317,0.5737,0.6055,0.0049,0.0024,0.0195,0.4321,0.2344,0.6543,0.2954
0.0269,0.3491,0.2197,0.0024,0.0024,0.0171,0.4321,0.2222,0.354,0.271
0.022,0.1489,0.0415,0.0024,0.0024,0.0098,0.5566,0.2319,0.1074,0.2759
0.0171,0.1196,0.0269,0.0024,0.0024,0.0122,0.5713,0.2246,0.0854,0.2808
0.0171,0.0903,0.0146,0.0024,0.0024,0.0122,0.5615,0.2197,0.0684,0.2856
0.0122,0.0195,0.0049,0.0024,0.0024,0.0073,0.6323,0.1831,0.0317,0.2979
0.0073,0.0952,0.1343,0.0024,0.0024,0.0049,0.4175,0.166,0.1465,0.2808
0.0049,0.1196,0.1636,0.0024,0.0024,0.0049,0.3882,0.1587,0.1685,0.2856
0.0073,0.1343,0.1807,0.0024,0.0024,0.0073,0.3613,0.1563,0.1855,0.2905
0.0098,0.0024,0.0024,0.0024,0.0024,0.0073,0.5298,0.2075,0.0024,0.2808
0.0049,0.0024,0.0073,0.0024,0.0024,0.0146,0.4614,0.1709,0.0098,0.2832
0.0024,0.0024,0.0024,0.0024,0.0049,0.0171,0.5127,0.1782,0.0024,0.2881
0.0024,0.0024,0.0024,0.0024,0.0024,0.0098,0.4419,0.188,0.0024,0.2759
0.0024,0.0024,0.0024,0.0024,0.0024,0.0073,0.5225,0.1904,0.0024,0.271
0.0122,0.0024,0.0024,0.0024,0.0024,0.0146,0.686,0.1904,0.0024,0.2661
0.0342,0.0024,0.0024,0.0024,0.0024,0.0806,2.4829,0.2441,0.0024,0.2832
0.0244,0.0024,0.0024,0.0024,0.0024,0.0806,2.5244,0.2319,0.0024,0.293
0.0195,0.0024,0.0024,0.0024,0.0024,0.0757,2.4512,0.2222,0.0024,0.293
0.0024,0.0024,0.0024,0.0024,0.0024,0.0122,0.3101,0.1392,0.0024,0.2856
0.0049,0.0024,0.0024,0.0024,0.0024,0.0073,0.2588,0.1465,0.0024,0.2759
0.0073,0.0024,0.0024,0.0024,0.0024,0.0098,0.1636,0.1611,0.0024,0.2905
0.0024,0.0024,0.0024,0.0024,0.0024,0.0049,0.1367,0.1807,0.0024,0.2905
0.0098,0.0024,0.0024,0.0024,0.0024,0.0171,0.1343,0.1611,0.0024,0.2979
0.0098,0.0024,0.0024,0.0024,0.0024,0.0171,0.1465,0.1733,0.0024,0.3027
0.0098,0.0171,0.0391,0.0024,0.0024,0.0171,0.144,0.1904,0.0244,0.3027
0.0146,0.0439,0.0708,0.0024,0.0024,0.0195,0.1514,0.2173,0.0659,0.3003
0.0024,0.1245,0.1855,0.0024,0.0024,0.0293,0.166,0.2002,0.1416,0.2808
0.0049,0.0879,0.1709,0.0024,0.0024,0.0195,0.1489,0.1709,0.166,0.2393
0.0049,0.0562,0.166,0.0024,0.0024,0.0122,0.1611,0.166,0.1392,0.2612
0.0049,0.0513,0.1538,0.0024,0.0024,0.0195,0.1367,0.1636,0.127,0.2588
0.0073,0.0488,0.1538,0.0024,0.0024,0.0269,0.1245,0.1685,0.1367,0.2539
0.0024,0.2124,0.1807,0.0024,0.0024,0.022,0.1733,0.1685,0.1904,0.2319
0.0024,0.2539,0.1978,0.0024,0.0024,0.022,0.188,0.1489,0.1929,0.2368
0.0024,0.3174,0.2466,0.0024,0.0024,0.0171,0.188,0.1318,0.2271,0.2417
0.0024,0.3735,0.3174,0.0024,0.0024,0.0146,0.2222,0.1172,0.271,0.2466
0.0024,0.332,0.3955,0.0024,0.0024,0.0171,0.2148,0.1367,0.4102,0.2393
0.0073,0.3076,0.3833,0.0024,0.0024,0.0464,0.2319,0.1465,0.4126,0.2393
0.0244,0.52,0.4932,0.0024,0.0024,0.0317,0.4492,0.1855,0.4517,0.2368
0.0293,0.6494,0.5737,0.0024,0.0024,0.0415,0.437,0.2026,0.5444,0.2466
0.0586,0.9204,0.6396,0.0024,0.0024,0.0684,0.6909,0.2832,0.4688,0.2295
0.0562,0.8862,0.5762,0.0024,0.0024,0.0684,0.6836,0.2686,0.4541,0.2173
0.0732,0.896,0.6909,0.0073,0.0049,0.0977,0.7324,0.3052,0.4248,0.2246
0.0708,0.8569,0.6592,0.0049,0.0024,0.0903,0.7544,0.2881,0.4224,0.2295
0.0854,0.7642,0.6543,0.0049,0.0024,0.0879,0.9204,0.2783,0.5542,0.2222
0.0806,0.7715,0.6958,0.0073,0.0024,0.0854,0.9692,0.2686,0.5933,0.2222
0.0513,0.8862,0.7007,0.0024,0.0024,0.0684,0.8228,0.2075,0.5884,0.2246
0.0537,0.9863,0.603,0.0024,0.0024,0.0708,0.9131,0.1807,0.5029,0.2295
0.0562,1.0669,0.6226,0.0024,0.0024,0.0757,0.8521,0.188,0.6104,0.2344
0.0586,0.9595,0.6396,0.0024,0.0024,0.0732,0.7886,0.1978,0.5737,0.2441
0.0586,0.8252,0.6909,0.0073,0.0024,0.0806,0.7642,0.2246,0.6152,0.2368
0.061,0.8301,0.7056,0.0049,0.0024,0.0757,0.7568,0.2393,0.6421,0.2368
0.0513,0.7397,0.6104,0.0024,0.0024,0.0562,0.7349,0.1904,0.6274,0.2417
0.0513,0.8691,0.7813,0.0024,0.0024,0.0537,0.7251,0.2344,0.8057,0.2075
0.0464,0.8911,0.7153,0.0024,0.0024,0.0513,0.8789,0.2515,0.7275,0.2319
0.0537,0.9717,0.7251,0.0024,0.0024,0.0684,1.0059,0.2759,0.7202,0.2344
0.0488,0.874,0.5859,0.0024,0.0049,0.0806,0.9326,0.2441,0.7617,0.2319
0.0732,0.7739,0.5298,0.0024,0.0024,0.0562,0.8594,0.2222,0.6982,0.2222
0.0781,0.7788,0.5859,0.0024,0.0024,0.061,0.8252,0.2563,0.647,0.2197
0.0781,0.8032,0.6128,0.0024,0.0024,0.0635,0.8667,0.2563,0.6616,0.21
0.0732,0.7764,0.5786,0.0049,0.0024,0.061,0.8594,0.2441,0.6323,0.2075
0.0757,0.6421,0.5298,0.0024,0.0024,0.0415,0.542,0.2295,0.5908,0.2148
0.0415,0.4834,0.4663,0.0024,0.0024,0.0415,0.5371,0.1538,0.481,0.2319
0.0195,0.3369,0.3198,0.0024,0.0024,0.0415,0.4834,0.1685,0.3149,0.2319
0.0171,0.2808,0.2832,0.0024,0.0024,0.0366,0.4492,0.1636,0.3247,0.2295
0.0928,0.3101,0.4199,0.0024,0.0024,0.0317,0.4321,0.1465,0.3931,0.2368
0.1538,0.332,0.4199,0.0024,0.0024,0.0342,0.4517,0.1416,0.4395,0.2466
0.1123,0.1025,0.1123,0.0024,0.0024,0.022,0.2979,0.1611,0.2148,0.2515
0.0488,0.1636,0.1807,0.0024,0.0024,0.022,0.4492,0.1782,0.188,0.249
0.0391,0.1611,0.1758,0.0024,0.0024,0.0244,0.4419,0.1709,0.1782,0.2515
0.061,0.0635,0.0806,0.0024,0.0024,0.0269,0.293,0.1587,0.083,0.2539
0.0488,0.0293,0.0952,0.0024,0.0024,0.0244,0.5396,0.1855,0.1147,0.2393
0.0415,0.0635,0.1343,0.0024,0.0024,0.0244,0.5347,0.1709,0.1733,0.2344
0.0049,0.0024,0.0415,0.0024,0.0024,0.0269,0.5688,0.1196,0.0879,0.2441
0.0049,0.0171,0.105,0.0024,0.0024,0.0415,1.0645,0.1758,0.0781,0.2515
0.0024,0.0024,0.0024,0.0024,0.0024,0.0488,1.2354,0.1563,0.0024,0.2368
0.0024,0.0024,0.0024,0.0024,0.0024,0.0415,1.1597,0.144,0.0024,0.2344
0.0049,0.0024,0.0024,0.0024,0.0024,0.0293,1.1011,0.1514,0.0024,0.2148
0.0171,0.0024,0.0024,0.0024,0.0024,0.0269,1.4771,0.2002,0.0024,0.2246
0.022,0.0024,0.0024,0.0024,0.0024,0.0488,2.5049,0.2173,0.0049,0.2368
0.022,0.0024,0.0024,0.0024,0.0024,0.0488,2.5757,0.2002,0.0024,0.2319
0.0244,0.0024,0.0024,0.0024,0.0024,0.0488,2.439,0.2026,0.0024,0.2295
0.0024,0.0635,0.0391,0.0024,0.0024,0.0171,0.1807,0.1489,0.0562,0.2368
0.0024,0.0684,0.0317,0.0024,0.0024,0.0146,0.1929,0.1465,0.0513,0.2417
0.0024,0.0684,0.0391,0.0024,0.0024,0.022,0.2124,0.1538,0.0513,0.249
0.0024,0.0732,0.0562,0.0024,0.0049,0.0244,0.271,0.1587,0.0439,0.249
0.0024,0.0757,0.0708,0.0024,0.0024,0.0342,0.2515,0.1392,0.0659,0.2319
0.0024,0.0781,0.0977,0.0024,0.0024,0.0195,0.2295,0.1367,0.1123,0.2246
0.0024,0.2051,0.2148,0.0024,0.0024,0.0269,0.3247,0.1245,0.2637,0.2197
0.0024,0.3052,0.2466,0.0024,0.0024,0.0317,0.271,0.1099,0.293,0.2295
0.0024,0.2954,0.2393,0.0024,0.0024,0.0366,0.271,0.1147,0.3003,0.2295
0.0146,0.2368,0.2173,0.0024,0.0024,0.0195,0.2832,0.166,0.2271,0.2197
0.0073,0.2954,0.2637,0.0024,0.0024,0.0317,0.2759,0.1514,0.2368,0.2173
0.0122,0.3418,0.2905,0.0024,0.0024,0.0244,0.2173,0.127,0.2515,0.2246
0.0073,0.3711,0.3906,0.0024,0.0024,0.0415,0.2808,0.1172,0.2954,0.2295
0.0269,0.4077,0.5225,0.0024,0.0024,0.0562,0.4468,0.1538,0.3955,0.2368
0.0171,0.3906,0.6128,0.0024,0.0024,0.0439,0.6006,0.1587,0.4565,0.2417
0.0342,0.6763,0.6885,0.0024,0.0024,0.0342,0.8472,0.1831,0.52,0.2466
0.0464,0.7715,0.7373,0.0024,0.0024,0.0391,0.8691,0.21,0.5811,0.249
0.0488,0.7935,0.7227,0.0024,0.0024,0.0464,0.9131,0.2148,0.6104,0.249
0.0537,0.8228,0.7227,0.0049,0.0024,0.0513,0.9058,0.2197,0.7007,0.249
0.1294,2.0044,1.0132,0.0317,0.0024,0.061,1.3184,0.2637,1.1011,0.2588
0.1318,2.2485,1.1719,0.0439,0.0098,0.0903,1.2744,0.293,1.3452,0.2539
0.1074,1.7993,0.9766,0.0195,0.0024,0.1025,1.25,0.293,1.0303,0.2319
0.105,1.9409,1.0767,0.022,0.0024,0.127,1.272,0.2954,1.1035,0.2246
0.1123,1.9482,1.1255,0.0293,0.0049,0.127,1.2793,0.2881,1.1621,0.2197
0.1147,2.0532,1.0864,0.0439,0.0073,0.1392,1.2427,0.3247,1.1816,0.2124
0.0879,1.8384,1.0254,0.0293,0.0024,0.127,1.1304,0.3052,1.0498,0.2026
0.0977,1.8945,0.9595,0.0171,0.0024,0.1221,1.0791,0.2734,1.0864,0.2148
0.1025,1.8677,0.9619,0.0146,0.0024,0.1123,1.1841,0.2637,1.1157,0.2246
0.0952,1.2329,0.8179,0.0269,0.0073,0.1001,1.2988,0.2246,1.0205,0.2515
0.1025,1.1841,0.8472,0.0244,0.0073,0.1074,1.311,0.2344,1.0132,0.2588
0.0903,1.2817,0.8716,0.0049,0.0049,0.127,1.4136,0.2246,0.9497,0.2734
0.0879,1.2183,0.8057,0.0171,0.0073,0.1294,1.4844,0.2246,0.8105,0.249
0.083,1.1133,0.7397,0.0171,0.0024,0.1245,1.4551,0.2417,0.7617,0.2563
0.0781,1.1743,0.8813,0.0244,0.0049,0.1392,1.3232,0.2026,0.9375,0.2344
0.0977,1.062,0.918,0.0391,0.0195,0.1636,1.416,0.2417,1.1792,0.2075
0.0732,0.9448,0.8032,0.0293,0.022,0.1563,1.4575,0.2393,0.9863,0.2124
0.0659,1.001,0.7739,0.0195,0.0073,0.127,1.5454,0.2124,0.8643,0.249
0.0635,1.0254,0.7886,0.0195,0.0073,0.1392,1.4624,0.2295,0.874,0.2393
0.0708,0.9692,0.7886,0.0098,0.0024,0.105,1.3379,0.2148,0.6787,0.2197
0.0586,0.9937,0.8203,0.0098,0.0049,0.0977,1.3086,0.1978,0.8862,0.2368
0.061,0.9937,0.7788,0.0146,0.0049,0.105,1.1865,0.1953,0.835,0.2441
0.0757,0.791,0.6665,0.0073,0.0024,0.1001,0.9351,0.2148,0.7031,0.249
0.0635,0.8398,0.6641,0.0073,0.0024,0.0879,0.8447,0.2051,0.7007,0.2417
0.0098,0.3223,0.2466,0.0024,0.0024,0.0342,0.9277,0.166,0.3882,0.2246
0.0122,0.1294,0.2002,0.0024,0.0024,0.0366,0.8569,0.1636,0.3198,0.2368
0.0024,0.0073,0.0781,0.0024,0.0024,0.0171,0.7056,0.1685,0.1147,0.2271
0.0122,0.0195,0.0977,0.0024,0.0024,0.0146,0.7813,0.188,0.1221,0.2319
0.0244,0.0293,0.1123,0.0024,0.0024,0.022,0.8447,0.2197,0.1318,0.2319
0.0146,0.0024,0.0391,0.0024,0.0024,0.0171,0.9106,0.1953,0.0659,0.2246
0.0024,0.0073,0.0244,0.0024,0.0024,0.022,0.4956,0.127,0.0195,0.2173
0.0024,0.0098,0.0366,0.0024,0.0024,0.022,0.5469,0.1416,0.0464,0.2173
0.0024,0.0806,0.1392,0.0024,0.0024,0.0342,0.6006,0.1416,0.0928,0.2295
0.0024,0.0928,0.1318,0.0024,0.0024,0.0171,0.4956,0.1196,0.1196,0.2368
0.0024,0.0513,0.061,0.0024,0.0024,0.0342,0.7544,0.1367,0.0635,0.2246
0.0024,0.0366,0.0391,0.0024,0.0024,0.0366,0.7031,0.1489,0.0464,0.2246
0.0024,0.0098,0.0293,0.0024,0.0024,0.0317,0.5493,0.144,0.0269,0.2295
0.0024,0.0415,0.0903,0.0024,0.0024,0.0244,0.5225,0.1416,0.0659,0.2197
0.0024,0.0171,0.0146,0.0024,0.0024,0.0171,0.6226,0.1294,0.0171,0.2466
0.0024,0.0146,0.0757,0.0024,0.0024,0.0098,0.6958,0.1392,0.0659,0.249
0.0024,0.0244,0.1245,0.0024,0.0024,0.0098,0.6567,0.1367,0.1074,0.2441
0.0024,0.1807,0.1563,0.0024,0.0024,0.0293,0.4712,0.1367,0.1978,0.2173
0.0024,0.1929,0.1782,0.0024,0.0024,0.0269,0.4224,0.1367,0.2173,0.2246
0.0024,0.188,0.1855,0.0024,0.0024,0.0269,0.4517,0.1392,0.2319,0.2295
0.0024,0.1733,0.2197,0.0024,0.0024,0.0269,0.5615,0.1318,0.2368,0.2393
0.0024,0.1758,0.2173,0.0024,0.0024,0.0269,0.6616,0.1294,0.2271,0.2417
0.0049,0.2368,0.2515,0.0024,0.0024,0.022,0.5566,0.1855,0.2417,0.2319
0.0024,0.2441,0.2881,0.0024,0.0049,0.0415,0.6128,0.1733,0.2686,0.2197
0.0098,0.3027,0.2783,0.0024,0.0024,0.0391,0.7642,0.1904,0.3101,0.2173
0.0073,0.3027,0.3223,0.0024,0.0024,0.0342,0.6177,0.1929,0.3564,0.2271
0.0122,0.2759,0.3809,0.0024,0.0024,0.0366,0.5957,0.2051,0.4321,0.2246
0.0146,0.271,0.3857,0.0024,0.0024,0.0366,0.6396,0.2148,0.4663,0.2246
0.0122,0.3247,0.376,0.0024,0.0024,0.0293,0.564,0.2246,0.4395,0.2368
0.0098,0.3784,0.4248,0.0024,0.0024,0.0317,0.6372,0.2197,0.481,0.2344
0.022,0.3955,0.4663,0.0024,0.0024,0.0342,0.6177,0.2393,0.5396,0.2026
0.0659,0.6982,0.7861,0.0073,0.0024,0.1001,0.6958,0.2148,0.6982,0.2075
0.0537,0.752,0.7983,0.0049,0.0024,0.0757,0.7837,0.2173,0.769,0.2173
0.0903,0.9106,0.7324,0.0024,0.0024,0.061,0.7739,0.2637,0.7935,0.2222
0.0928,1.0938,0.73,0.0073,0.0024,0.0513,0.7788,0.2686,0.7788,0.2271
0.0879,1.1743,0.6982,0.0073,0.0024,0.0757,1.0596,0.2441,0.7715,0.2441
0.0757,1.0498,0.8447,0.0073,0.0024,0.0806,0.9448,0.2637,0.7104,0.2515
0.0806,1.062,0.8813,0.0122,0.0024,0.0732,0.9106,0.2759,0.7324,0.2515
0.0928,1.2988,0.8325,0.0195,0.0024,0.0928,1.2354,0.2783,0.7373,0.2246
0.0781,1.2256,0.7983,0.0146,0.0024,0.0757,1.1768,0.2319,0.7397,0.2368
0.0757,1.1963,0.7495,0.0098,0.0024,0.0708,1.1304,0.2222,0.7324,0.2393
0.0708,1.0132,0.7324,0.0024,0.0024,0.0977,1.1133,0.21,0.7666,0.2344
0.061,1.0352,0.6714,0.0024,0.0024,0.0562,0.9351,0.2002,0.7324,0.2222
0.0732,1.1548,0.7813,0.0024,0.0024,0.0659,0.9375,0.2246,0.6763,0.2344
0.0537,1.0767,0.6738,0.0024,0.0024,0.0757,0.9937,0.2344,0.5542,0.2246
0.0684,1.2158,0.7593,0.0073,0.0024,0.0757,1.2061,0.2417,0.542,0.2148
0.0757,1.2256,0.7666,0.0171,0.0049,0.0537,1.0327,0.2441,0.564,0.2173
0.0732,1.2109,0.7568,0.0122,0.0024,0.0513,0.9692,0.2319,0.5664,0.2222
0.0586,1.1499,0.7251,0.0049,0.0024,0.0513,0.896,0.2002,0.5591,0.2271
0.0781,1.2231,0.7397,0.0073,0.0049,0.0903,1.4966,0.2466,0.6519,0.2197
0.0659,1.1401,0.7471,0.0024,0.0024,0.0708,1.189,0.2563,0.5908,0.2173
0.0757,1.1035,0.7202,0.0024,0.0024,0.0684,1.1914,0.2905,0.5591,0.2173
0.0684,0.9644,0.603,0.0146,0.0049,0.0562,1.0986,0.3003,0.7202,0.2124
0.0586,0.8398,0.6616,0.0024,0.0024,0.0439,0.8984,0.3174,0.7617,0.1978
0.0146,0.5884,0.3955,0.0024,0.0024,0.0415,0.6885,0.2271,0.5298,0.2539
0.0195,0.4565,0.2759,0.0024,0.0024,0.0293,0.8325,0.21,0.3955,0.2466
0.022,0.5103,0.2295,0.0024,0.0024,0.0488,0.8838,0.1758,0.4297,0.2173
0.0342,0.2954,0.2808,0.0024,0.0024,0.022,1.1108,0.2124,0.2734,0.2393
0.0366,0.4321,0.376,0.0024,0.0024,0.0269,1.1011,0.2197,0.3931,0.2417
0.0366,0.1074,0.0903,0.0024,0.0024,0.0317,1.3013,0.2515,0.105,0.2393
0.0293,0.1392,0.1123,0.0024,0.0024,0.0244,1.3452,0.2417,0.1123,0.2368
0.0122,0.3955,0.2417,0.0024,0.0024,0.0171,1.0986,0.1782,0.21,0.2271
0.0049,0.3687,0.2148,0.0024,0.0024,0.0171,0.9692,0.1611,0.1978,0.2319
0.0024,0.1636,0.0781,0.0024,0.0024,0.0244,1.0645,0.1367,0.0879,0.2173
0.0024,0.0684,0.1123,0.0024,0.0024,0.0195,0.9009,0.1465,0.0659,0.2417
0.0049,0.127,0.2124,0.0024,0.0024,0.0146,0.708,0.1465,0.083,0.2368
0.0195,0.0562,0.1099,0.0024,0.0024,0.0195,0.9424,0.1685,0.0342,0.2368
0.0171,0.0342,0.083,0.0024,0.0024,0.0171,0.9424,0.166,0.022,0.2344
0.0049,0.1001,0.1221,0.0024,0.0024,0.022,0.8105,0.1392,0.0879,0.2368
0.0122,0.0317,0.0391,0.0024,0.0024,0.0146,0.8472,0.1733,0.0366,0.2271
0.0098,0.0024,0.0024,0.0024,0.0024,0.0122,1.001,0.1807,0.0024,0.2319
0.0024,0.0024,0.0024,0.0024,0.0024,0.0146,1.2939,0.1392,0.0024,0.2295
0.0024,0.0122,0.022,0.0024,0.0024,0.0293,0.8911,0.1318,0.0342,0.2344
0.0073,0.0171,0.0464,0.0024,0.0024,0.0317,0.9351,0.144,0.0757,0.2246
0.0269,0.0391,0.0659,0.0024,0.0024,0.0195,1.2012,0.1855,0.0903,0.2637
0.0171,0.0122,0.0586,0.0024,0.0024,0.0391,1.0449,0.1538,0.0659,0.2515
0.0024,0.0122,0.0586,0.0024,0.0024,0.0366,1.1865,0.1636,0.0757,0.2173
0.0024,0.1196,0.0952,0.0024,0.0024,0.0464,1.1597,0.1538,0.1538,0.2197
0.0024,0.1367,0.0684,0.0024,0.0024,0.0513,1.1621,0.166,0.1294,0.2319
0.0024,0.1001,0.0757,0.0024,0.0024,0.0537,1.3867,0.1636,0.1758,0.249
0.0024,0.0659,0.0391,0.0024,0.0049,0.0513,1.2817,0.1465,0.1367,0.2612
0.0024,0.0586,0.0269,0.0024,0.0049,0.0562,1.1816,0.1392,0.1172,0.2539
0.0024,0.1025,0.1099,0.0024,0.0024,0.0464,1.1401,0.127,0.1465,0.2368
0.0024,0.1245,0.1025,0.0024,0.0024,0.0464,1.1133,0.1245,0.1367,0.2368
0.0024,0.1563,0.0708,0.0024,0.0024,0.0464,1.0498,0.1514,0.1099,0.2344
0.0049,0.1733,0.1636,0.0024,0.0024,0.0293,1.0376,0.1489,0.1514,0.2295
0.0024,0.1538,0.2515,0.0024,0.0024,0.0562,1.0303,0.1465,0.2417,0.2173
0.0098,0.1685,0.2466,0.0024,0.0024,0.0562,0.9424,0.166,0.2612,0.2148
0.0293,0.2783,0.3516,0.0024,0.0024,0.0586,1.0962,0.1929,0.3687,0.2222
0.0269,0.2588,0.3345,0.0024,0.0024,0.061,1.04,0.1929,0.3613,0.2246
0.0244,0.3198,0.3882,0.0024,0.0024,0.0537,1.0425,0.1929,0.647,0.2295
0.0171,0.3271,0.3442,0.0024,0.0024,0.0537,0.9912,0.1831,0.5737,0.2368
0.0391,0.6592,0.542,0.0024,0.0024,0.061,1.1841,0.2368,0.6421,0.2148
0.0366,0.6323,0.5151,0.0024,0.0024,0.0513,1.0352,0.2368,0.6006,0.2344
0.0366,0.6836,0.459,0.0024,0.0024,0.0439,1.1108,0.2466,0.5566,0.2319
0.0366,0.6274,0.4639,0.0024,0.0049,0.0586,1.0864,0.2612,0.5444,0.2271
0.0366,0.5908,0.4712,0.0024,0.0024,0.0659,1.0791,0.2319,0.5347,0.2222
0.0439,0.6812,0.5347,0.0024,0.0024,0.0708,1.2305,0.2051,0.5127,0.2173
0.0439,1.0229,0.7153,0.0073,0.0024,0.1489,1.665,0.2124,0.9058,0.2124
0.0537,0.874,0.7007,0.0073,0.0024,0.1587,2.6147,0.2466,0.8838,0.2295
0.0586,0.7861,0.6836,0.0024,0.0024,0.1392,2.4585,0.271,0.6592,0.2295
0.0708,1.106,0.6982,0.0098,0.0024,0.1636,2.3877,0.3076,0.7275,0.2173
0.0781,1.2817,0.7739,0.0171,0.0049,0.1514,2.2827,0.2954,0.9033,0.2295
0.0977,1.4185,0.8447,0.0269,0.0073,0.1636,2.146,0.2905,1.1792,0.2295
0.1001,1.1792,0.9692,0.0269,0.0098,0.1782,2.5854,0.354,1.1328,0.2319
0.0879,1.0571,1.0303,0.0244,0.0073,0.1392,2.3267,0.3296,1.0254,0.2344
0.1001,1.1865,0.8374,0.0244,0.0171,0.1709,2.5,0.3101,1.0278,0.2197
0.0903,1.1108,0.7495,0.022,0.0146,0.1538,2.3438,0.2954,0.9692,0.2173
0.0806,1.0107,0.7275,0.0195,0.0171,0.1465,2.3511,0.293,0.9131,0.2222
0.0757,1.0425,0.8325,0.0073,0.0098,0.1563,2.6587,0.3174,1.0767,0.2319
0.0757,0.8691,0.8643,0.0098,0.0098,0.1709,2.5977,0.2563,0.8911,0.2197
0.0732,1.0278,0.8105,0.0122,0.0073,0.1099,2.0825,0.2466,0.7202,0.2368
0.0659,1.0498,0.8618,0.0098,0.0073,0.1074,1.9116,0.2393,0.6982,0.2417
0.0562,1.0425,0.7471,0.0049,0.0073,0.1196,1.8872,0.2173,0.6055,0.2441
0.0659,0.7397,0.7495,0.0146,0.0049,0.1147,1.7896,0.2661,0.4785,0.2393
0.0171,0.3564,0.332,0.0024,0.0024,0.0659,1.5552,0.1807,0.3882,0.2124
0.0171,0.4126,0.4541,0.0024,0.0024,0.0464,1.3159,0.1611,0.5273,0.2271
0.022,0.2856,0.3662,0.0024,0.0024,0.0439,1.1108,0.1831,0.3271,0.2319
0.0195,0.3125,0.3735,0.0024,0.0024,0.0415,1.2012,0.1807,0.3198,0.2319
0.0146,0.3003,0.3809,0.0024,0.0024,0.0537,1.1646,0.2417,0.2954,0.2075
0.0244,0.2246,0.2856,0.0024,0.0024,0.0586,1.2744,0.2319,0.3223,0.2148
0.0024,0.1099,0.1001,0.0024,0.0024,0.061,1.1987,0.1733,0.1074,0.2124
0.0024,0.0024,0.0024,0.0024,0.0024,0.1611,0.2246,0.1465,0.0024,0.3101
0.0073,0.0024,0.0024,0.0024,0.0024,0.0244,0.3467,0.1733,0.0024,0.2856
0.0195,0.0024,0.0024,0.0024,0.0024,0.0562,1.2402,0.1855,0.0024,0.2856
0.0195,0.0024,0.0024,0.0024,0.0024,0.0635,1.3184,0.2051,0.0024,0.2856
0.0244,0.1929,0.0024,0.0024,0.0024,0.061,1.4404,0.1709,0.0024,0.3027
0.0439,0.415,0.0146,0.0024,0.0024,0.0879,2.5586,0.1831,0.0024,0.293
0.0464,0.4126,0.0122,0.0024,0.0024,0.0854,2.6709,0.1709,0.0024,0.2905
0.0537,0.5786,0.0024,0.0024,0.0024,0.0562,2.6904,0.188,0.0024,0.3101
0.0513,0.5225,0.0122,0.0024,0.0024,0.0659,2.9224,0.2271,0.0049,0.3149
0.0464,0.5518,0.0195,0.0024,0.0024,0.061,2.8394,0.2148,0.0024,0.3101
0.0488,0.5786,0.0171,0.0024,0.0024,0.0537,2.6831,0.2222,0.0024,0.3174
0.0757,0.5371,0.0269,0.0024,0.0024,0.0903,3.6572,0.3442,0.0049,0.3052
0.3101,1.2305,0.2783,0.0854,0.0562,0.3979,4.6631,0.9009,0.2173,0.3125
0.3223,1.0962,0.2466,0.0635,0.0464,0.4077,4.6631,1.0864,0.1831,0.3101
0.3296,1.1182,0.3101,0.0562,0.0464,0.4004,4.6582,1.0938,0.1929,0.3101
0.2734,0.9985,0.2783,0.0928,0.0464,0.4517,4.6631,0.9717,0.1758,0.293
0.2686,1.0767,0.2002,0.061,0.0366,0.4639,4.6582,1.1108,0.1343,0.2954
0.2686,1.0742,0.2051,0.0562,0.0366,0.4492,4.6631,1.0767,0.127,0.2979
0.2539,1.0645,0.2563,0.0464,0.0391,0.3955,4.6582,0.9546,0.1563,0.2954
0.3174,1.106,0.2832,0.0513,0.0854,0.7129,4.6655,1.0498,0.1953,0.2905
0.3418,1.1475,0.2466,0.0488,0.083,0.7129,4.6655,1.0156,0.2002,0.3003
0.3101,0.918,0.2148,0.0464,0.0928,0.7422,4.6631,1.062,0.2344,0.3076
0.2588,0.9229,0.1831,0.0488,0.0977,0.6494,4.6582,0.9277,0.2075,0.3149
0.2319,1.145,0.1123,0.0342,0.0854,0.5444,4.6631,0.7666,0.1392,0.3174
0.1587,0.8154,0.0684,0.0098,0.0366,0.3809,4.6655,0.7275,0.0708,0.2905
0.21,0.8691,0.061,0.0073,0.0244,0.2319,4.6606,0.625,0.0854,0.2856
0.2173,0.8862,0.0586,0.0073,0.0244,0.2344,4.6631,0.6152,0.0806,0.293
0.2002,0.9326,0.0586,0.0024,0.0171,0.2246,4.6631,0.5566,0.0586,0.2979
0.1929,0.8765,0.0635,0.0024,0.0146,0.2148,4.6558,0.5176,0.0488,0.3003
0.1758,0.8862,0.0415,0.0049,0.0195,0.2026,4.6533,0.5322,0.0659,0.293
0.1538,0.8618,0.0391,0.0024,0.022,0.1953,4.3872,0.4688,0.0513,0.2856
0.1611,0.8472,0.061,0.0073,0.0342,0.2612,4.4067,0.6104,0.0586,0.3198
0.1733,0.7813,0.0586,0.0073,0.0439,0.2759,4.6289,0.6348,0.0537,0.3149
0.1978,0.7227,0.0635,0.0122,0.0586,0.3223,4.6631,0.6689,0.0513,0.3003
0.2246,0.8276,0.0806,0.0122,0.0513,0.3711,4.6631,0.7446,0.0537,0.3052
0.2295,0.8618,0.0952,0.022,0.0708,0.4053,4.6631,0.7788,0.0586,0.3027
0.1709,1.0083,0.0562,0.0098,0.0513,0.3369,4.6631,0.8008,0.0781,0.2808
0.1733,0.8765,0.0659,0.0146,0.0635,0.332,4.6582,0.8765,0.0928,0.2832
0.1807,0.8838,0.0732,0.0195,0.0708,0.3613,4.6631,0.813,0.0879,0.2905
0.2319,1.106,0.0562,0.022,0.0488,0.3149,4.6631,0.8472,0.0562,0.3052
0.2051,1.1621,0.0562,0.0171,0.0439,0.2637,4.6582,0.6226,0.0732,0.271
0.1929,1.145,0.0537,0.0146,0.0391,0.2515,4.6606,0.5542,0.0732,0.271
0.1831,1.1011,0.061,0.0098,0.0317,0.2515,4.6582,0.564,0.0732,0.2783
0.1904,1.04,0.0513,0.0024,0.0195,0.2368,4.2871,0.7324,0.0659,0.293
0.1563,0.835,0.0269,0.0024,0.0171,0.2246,4.2139,0.5933,0.0391,0.2856
0.1514,0.8105,0.0073,0.0024,0.0024,0.1538,3.8892,0.6323,0.0244,0.3125
0.144,0.8105,0.0073,0.0024,0.0024,0.1733,3.772,0.6079,0.0269,0.3076
0.1587,0.6689,0.0122,0.0024,0.0098,0.2124,3.5815,0.5371,0.022,0.3052
0.1172,0.7007,0.0024,0.0024,0.0024,0.1318,3.2031,0.4932,0.0098,0.3027
0.0977,0.6519,0.0049,0.0024,0.0171,0.1343,2.7783,0.4053,0.0195,0.2832
0.0879,0.6299,0.0024,0.0024,0.0122,0.1196,2.5977,0.4102,0.0269,0.2808
0.0928,0.5957,0.0024,0.0024,0.0049,0.1318,2.9614,0.3613,0.0269,0.293
0.1001,0.564,0.0024,0.0024,0.0049,0.1416,3.1104,0.3418,0.0195,0.2979
0.0928,0.5298,0.0024,0.0024,0.0073,0.1416,3.208,0.3198,0.0146,0.3052
0.0806,0.6226,0.0049,0.0024,0.0024,0.1221,2.7808,0.3613,0.0024,0.3101
0.0659,0.3638,0.0024,0.0024,0.0049,0.0903,2.4512,0.2734,0.0024,0.293
0.0537,0.332,0.0024,0.0024,0.0049,0.0879,2.2534,0.2563,0.0024,0.3052
0.0464,0.4907,0.0049,0.0024,0.0024,0.1074,2.2266,0.2393,0.0024,0.3223
0.0317,0.3857,0.0024,0.0024,0.0024,0.1221,1.8726,0.2026,0.0024,0.3101
0.0098,0.0757,0.0049,0.0024,0.0024,0.0952,1.5234,0.188,0.0024,0.2759
0.022,0.0073,0.0146,0.0024,0.0024,0.1978,0.9668,0.2295,0.0366,0.271
0.0024,0.0024,0.0024,0.0024,0.0024,0.3076,0.5786,0.1147,0.0024,0.4663
0.0024,0.0024,0.0024,0.0024,0.0024,0.0293,0.2417,0.1074,0.0024,0.3076
0.0024,0.0024,0.0049,0.0024,0.0024,0.0269,1.2402,0.1099,0.0024,0.3223
0.0049,0.0024,0.0024,0.0024,0.0024,0.0195,1.4233,0.1538,0.0024,0.3052
0.0024,0.0024,0.0024,0.0024,0.0024,0.0269,1.6431,0.1685,0.0024,0.3052
0.0024,0.0024,0.0024,0.0024,0.0024,0.0293,1.875,0.1611,0.0024,0.2881
0.0024,0.0024,0.0024,0.0024,0.0024,0.0195,1.8066,0.1636,0.0024,0.2808
0.0024,0.0024,0.0024,0.0024,0.0024,0.022,1.7749,0.1709,0.0024,0.2759
0.0024,0.0024,0.0024,0.0024,0.0024,0.0269,1.8994,0.1709,0.0024,0.2759
0.0024,0.0024,0.0024,0.0024,0.0024,0.0269,1.7749,0.1636,0.0024,0.3003
0.0146,0.0122,0.0244,0.0024,0.0024,0.0806,2.5073,0.2124,0.0024,0.2881
0.0342,0.0049,0.1904,0.0366,0.0049,0.0928,2.9614,0.2441,0.0659,0.2783
0.0415,0.0146,0.2637,0.0659,0.0049,0.105,3.3398,0.2563,0.1025,0.2808
0.0537,0.0146,0.3101,0.0928,0.0073,0.1172,3.5962,0.2954,0.127,0.2808
0.0732,0.0366,0.3149,0.1123,0.0146,0.1416,3.8135,0.3345,0.1343,0.2783
0.0854,0.2246,0.2563,0.1074,0.0269,0.1831,4.3945,0.415,0.1489,0.2661
0.0781,0.2295,0.2563,0.1025,0.0293,0.1929,4.6289,0.4785,0.1538,0.2637
0.0757,0.2271,0.2808,0.1123,0.0244,0.188,4.6606,0.5103,0.1636,0.2612
0.1807,0.5493,0.3442,0.1074,0.0244,0.2002,4.6606,0.6299,0.2222,0.293
0.1855,0.6006,0.3931,0.105,0.0293,0.2002,4.6606,0.6006,0.2124,0.2856
0.1782,0.7666,0.354,0.0659,0.022,0.2563,4.6631,0.7104,0.1953,0.3076
0.1636,0.8032,0.3418,0.0562,0.0244,0.2539,4.6631,0.6592,0.1782,0.3052
0.1514,0.7593,0.3101,0.0391,0.0195,0.2393,4.6558,0.5859,0.1563,0.3052
0.1392,0.6372,0.2686,0.0391,0.0098,0.2441,4.6631,0.5786,0.1221,0.3101
0.1538,0.6787,0.1367,0.0098,0.0049,0.1904,4.4141,0.52,0.0952,0.2954
0.0952,0.6787,0.1001,0.0024,0.0024,0.1392,3.9697,0.3784,0.061,0.293
0.0928,0.8252,0.1196,0.0146,0.0073,0.1563,4.6436,0.3906,0.0488,0.293
0.1611,0.8667,0.1953,0.0269,0.0293,0.2319,4.6582,0.5933,0.1294,0.3174
0.144,0.7935,0.188,0.0244,0.022,0.2441,4.6631,0.52,0.1294,0.3076
0.1416,0.8154,0.2319,0.0342,0.0122,0.2515,4.6631,0.5688,0.1465,0.3076
0.144,0.8008,0.2124,0.0342,0.0146,0.2368,4.6631,0.5396,0.1392,0.3003
0.1587,0.7373,0.1392,0.0293,0.022,0.2319,4.6558,0.5566,0.1074,0.2783
0.1563,1.0791,0.0952,0.0024,0.0195,0.2246,4.6606,0.6519,0.0806,0.3027
0.1538,1.1475,0.0684,0.0024,0.0073,0.188,4.5776,0.5933,0.0659,0.3003
0.1538,1.1865,0.0635,0.0024,0.0024,0.1733,4.6265,0.5347,0.0635,0.293
0.2124,1.0156,0.0244,0.0024,0.0024,0.1611,4.5801,0.4053,0.0635,0.3174
0.2026,0.9302,0.0195,0.0024,0.0024,0.1636,4.563,0.4175,0.061,0.3174
0.105,0.6665,0.0195,0.0024,0.0073,0.1685,4.4971,0.3247,0.0635,0.2979
0.1611,0.8228,0.0537,0.0098,0.0146,0.2344,4.6509,0.4272,0.0732,0.2832
0.1782,0.9546,0.0537,0.0073,0.0171,0.2246,4.6582,0.5151,0.0781,0.2954
0.1392,0.9082,0.0415,0.0024,0.0146,0.2051,4.3066,0.5957,0.0635,0.2905
0.1611,0.896,0.0415,0.0073,0.0049,0.1929,4.6631,0.5469,0.061,0.293
0.1978,0.9912,0.0586,0.0024,0.0098,0.1929,4.6289,0.5908,0.083,0.2856
0.1636,0.8765,0.0366,0.0024,0.0146,0.2148,4.5898,0.6909,0.0757,0.3101
0.1294,1.001,0.0366,0.0049,0.0293,0.1318,4.082,0.3809,0.0513,0.2856
0.1172,0.6738,0.022,0.0024,0.0024,0.2124,3.8525,0.3711,0.0439,0.271
0.1172,0.603,0.0024,0.0024,0.0024,0.127,3.4717,0.3687,0.0073,0.3076
0.1123,0.5957,0.0024,0.0049,0.0024,0.1123,3.1909,0.3369,0.0024,0.3076
0.0903,0.7153,0.0024,0.0024,0.0024,0.0757,2.4146,0.2734,0.0049,0.2856
0.0781,0.7153,0.0024,0.0024,0.0024,0.061,2.2217,0.249,0.0024,0.293
0.0537,0.4663,0.0024,0.0024,0.0024,0.0806,2.5635,0.1758,0.0024,0.2734
0.0488,0.5591,0.0024,0.0024,0.0049,0.1929,1.0132,0.2222,0.0024,0.3003
0.0195,0.4077,0.022,0.0024,0.0024,0.2295,1.062,0.2173,0.0439,0.3027
0.0122,0.4077,0.0195,0.0024,0.0024,0.2319,1.1401,0.1929,0.0464,0.2954
0.0122,0.3979,0.0024,0.0024,0.0024,0.1758,0.979,0.1196,0.0122,0.293
0.0342,0.3979,0.0049,0.0024,0.0024,0.1392,1.0791,0.1709,0.0024,0.2856
0.0024,0.2637,0.0024,0.0024,0.0024,0.1025,0.7104,0.1831,0.0024,0.2759
0.0195,0.0366,0.0024,0.0049,0.0024,0.0659,0.5371,0.1416,0.0024,0.293
0.0073,0.0024,0.0024,0.0024,0.0024,0.0806,0.3076,0.1245,0.0024,0.2637
0.0073,0.0024,0.0049,0.0049,0.0024,0.1318,0.2222,0.1001,0.0024,0.2588
0.0024,0.0024,0.0024,0.0024,0.0024,0.1172,0.2979,0.1514,0.0024,0.2734
0.0024,0.0903,0.0342,0.0024,0.0024,0.0928,0.2222,0.1636,0.0806,0.271
0.0098,0.0049,0.0024,0.0024,0.0024,0.105,0.1343,0.1294,0.0098,0.2637
0.0073,0.0024,0.0024,0.0024,0.0024,0.0952,0.1221,0.1245,0.0024,0.2612
0.0024,0.0024,0.0073,0.0024,0.0024,0.0464,0.0977,0.1758,0.0049,0.271
0.0366,0.1733,0.0684,0.0098,0.0024,0.1001,3.6719,0.2246,0.0024,0.2954
0.0342,0.188,0.0659,0.0098,0.0024,0.1025,3.7207,0.2246,0.0024,0.293
0.0415,0.271,0.0439,0.0024,0.0024,0.0952,3.689,0.2563,0.0024,0.271
0.0586,0.5078,0.21,0.0342,0.0146,0.2197,4.6606,0.4102,0.061,0.249
0.061,0.5664,0.2954,0.0415,0.0195,0.2222,4.624,0.3931,0.0757,0.2417
0.0684,0.6396,0.3369,0.0464,0.0195,0.2271,4.6387,0.3955,0.0854,0.2417
0.0781,0.6738,0.3345,0.0562,0.022,0.2441,4.6631,0.4126,0.083,0.2417
0.1587,0.7007,0.2783,0.0684,0.0391,0.2686,4.6509,0.4077,0.1099,0.2783
0.1929,0.7983,0.4297,0.1221,0.0684,0.5981,4.6509,0.7031,0.1392,0.2637
0.249,0.7715,0.3394,0.1318,0.1172,0.7813,4.6533,0.7373,0.2466,0.2808
0.2563,0.7373,0.3418,0.1294,0.1318,0.8984,4.6631,0.769,0.2515,0.2832
0.2417,0.8301,0.3564,0.1245,0.1221,0.8398,4.6484,0.73,0.2417,0.2856
0.2417,0.874,0.3931,0.1221,0.1172,0.8228,4.6606,0.7544,0.2417,0.2832
0.2368,0.8643,0.3784,0.1245,0.127,0.7397,4.6606,0.6665,0.1929,0.271
0.2271,0.9204,0.3735,0.1196,0.1172,0.7251,4.6631,0.647,0.1782,0.2783
0.2344,1.0352,0.3223,0.1025,0.0903,0.6274,4.6509,0.6714,0.1538,0.2832
0.1978,1.0254,0.2783,0.0781,0.0732,0.5542,4.6631,0.6348,0.1538,0.2881
0.2002,0.957,0.2734,0.0708,0.0757,0.5566,4.6606,0.6348,0.1392,0.3052
0.1855,0.9448,0.2612,0.0708,0.0732,0.542,4.6313,0.5933,0.1221,0.3076
0.1831,0.9009,0.1953,0.0439,0.0342,0.3516,4.6631,0.5347,0.0879,0.2832
0.1685,0.752,0.1978,0.0684,0.0537,0.3516,4.4507,0.5469,0.1001,0.2856
0.1465,0.7642,0.2368,0.0635,0.0391,0.271,3.877,0.5371,0.127,0.2808
0.1636,0.7568,0.1929,0.0269,0.0342,0.2271,4.5825,0.5908,0.1221,0.2881
0.1685,0.7788,0.2246,0.0391,0.0317,0.2271,4.4995,0.5786,0.144,0.2954
0.2173,0.73,0.2002,0.0244,0.0366,0.2954,4.6509,0.625,0.1758,0.2881
0.2319,0.9277,0.2393,0.0415,0.0342,0.2686,4.6606,0.625,0.1855,0.2856
0.2002,0.73,0.3247,0.0562,0.0464,0.3027,4.6631,0.5371,0.2051,0.3003
0.1929,0.6787,0.3125,0.0537,0.0488,0.3345,4.3188,0.5469,0.1636,0.3027
0.1807,0.647,0.2271,0.0439,0.0415,0.3027,4.6021,0.5151,0.1538,0.2979
0.1758,0.9766,0.2783,0.0537,0.0269,0.2759,4.6606,0.6226,0.105,0.271
0.1611,0.9497,0.3296,0.0757,0.0391,0.2734,4.6484,0.5176,0.1514,0.2563
0.1782,0.8813,0.2319,0.0537,0.0342,0.2734,3.9038,0.5859,0.2124,0.2881
0.1904,0.7983,0.2466,0.0366,0.022,0.2393,3.6938,0.6226,0.2124,0.3296
0.1685,0.9863,0.2881,0.0488,0.0342,0.2344,4.6631,0.6567,0.1929,0.3052
0.1538,0.8032,0.2124,0.0439,0.0171,0.1904,4.6631,0.5615,0.1392,0.2905
0.1611,0.7739,0.2148,0.0464,0.022,0.1953,4.6606,0.5225,0.1221,0.2808
0.1465,0.8765,0.2026,0.0415,0.0342,0.2246,4.6606,0.3979,0.1636,0.2808
0.1367,0.8325,0.1978,0.0366,0.0317,0.2197,4.6362,0.3687,0.1636,0.2759
0.0269,0.3516,0.1538,0.0024,0.0171,0.1831,2.0947,0.2148,0.1587,0.2588
0.0293,0.3027,0.2026,0.0024,0.0146,0.2271,2.2632,0.2197,0.3027,0.2612
0.0293,0.2734,0.2002,0.0024,0.0122,0.2319,2.3047,0.2173,0.2979,0.2686
0.0269,0.2319,0.1782,0.0024,0.0122,0.2197,2.2485,0.2197,0.2734,0.2661
0.0244,0.1929,0.1465,0.0024,0.0098,0.2002,2.1973,0.2124,0.2344,0.2661
0.022,0.1733,0.1172,0.0024,0.0073,0.1758,2.1045,0.2051,0.1929,0.2686
0.0269,0.188,0.0684,0.0024,0.0049,0.1489,2.2363,0.2051,0.1221,0.2612
0.0293,0.166,0.188,0.0024,0.0024,0.1099,1.875,0.2563,0.2734,0.2539
0.0415,0.2612,0.2197,0.0024,0.0024,0.0757,1.6895,0.2368,0.3027,0.2515
0.0244,0.3979,0.2979,0.0024,0.0024,0.0732,1.4038,0.2148,0.4224,0.2759
0.0195,0.2759,0.2148,0.0024,0.0024,0.0635,1.4844,0.1929,0.3271,0.2856
0.0073,0.1831,0.1343,0.0024,0.0024,0.0537,1.5039,0.1587,0.2197,0.2856
0.0049,0.1074,0.0732,0.0024,0.0024,0.0513,1.3159,0.1611,0.1367,0.2759
0.0122,0.0903,0.1318,0.0024,0.0049,0.0391,1.2231,0.1831,0.1123,0.2783
0.0146,0.1221,0.1807,0.0024,0.0024,0.0342,1.1914,0.1782,0.1196,0.2832
0.0146,0.1636,0.21,0.0024,0.0049,0.0342,1.2427,0.166,0.1318,0.2856
0.0146,0.188,0.1587,0.0024,0.0024,0.0366,1.4795,0.144,0.1245,0.2808
0.0146,0.1611,0.1294,0.0024,0.0024,0.0415,1.4819,0.1465,0.1025,0.2759
0.0146,0.1343,0.1001,0.0024,0.0024,0.0391,1.3647,0.1489,0.083,0.2661
0.0098,0.1074,0.1172,0.0024,0.0024,0.0537,1.3062,0.1416,0.061,0.2686
0.0024,0.0635,0.1489,0.0024,0.0024,0.0391,1.0205,0.1172,0.0806,0.2563
0.0049,0.083,0.1611,0.0024,0.0024,0.0562,1.0278,0.1416,0.1709,0.2881
0.0049,0.0928,0.1367,0.0024,0.0024,0.0562,1.0352,0.144,0.1416,0.2881
0.0024,0.0415,0.0952,0.0024,0.0024,0.0635,0.9595,0.1343,0.1099,0.249
0.0024,0.0488,0.0928,0.0024,0.0024,0.0488,0.9741,0.1367,0.1025,0.2661
0.0024,0.0659,0.1099,0.0024,0.0024,0.0488,0.9424,0.1465,0.0879,0.271
0.0024,0.0757,0.0757,0.0024,0.0024,0.0391,1.0376,0.1221,0.0562,0.2661
0.0024,0.1807,0.2002,0.0024,0.0024,0.0391,1.0962,0.0952,0.1343,0.2588
0.0024,0.1782,0.1538,0.0024,0.0024,0.0439,1.0767,0.1147,0.1001,0.2563
0.0024,0.1147,0.0732,0.0024,0.0024,0.0562,1.1743,0.1392,0.0415,0.2734
0.0024,0.0684,0.0244,0.0024,0.0024,0.0562,1.3257,0.1245,0.0244,0.2856
0.0024,0.0806,0.0146,0.0024,0.0024,0.0439,1.2549,0.1099,0.0439,0.2954
0.0073,0.0732,0.0024,0.0024,0.0024,0.0366,1.0205,0.1123,0.0415,0.2759
0.0073,0.1001,0.0366,0.0024,0.0049,0.0366,0.9497,0.1196,0.0928,0.2661
0.0024,0.1099,0.0635,0.0024,0.0024,0.0342,1.1206,0.1245,0.0903,0.3101
0.0049,0.1416,0.0415,0.0024,0.0024,0.0391,1.0181,0.1465,0.0635,0.293
0.0098,0.1318,0.0439,0.0024,0.0024,0.0635,0.8301,0.1685,0.0293,0.2563
0.0098,0.1221,0.0415,0.0024,0.0024,0.0684,0.7813,0.1733,0.0269,0.2441
0.0195,0.0806,0.022,0.0024,0.0024,0.0439,0.7397,0.1489,0.0439,0.2905
0.0854,0.0415,0.1294,0.0024,0.0024,0.0391,0.4639,0.3198,0.0879,0.2979
0.0684,0.0439,0.1245,0.0024,0.0024,0.0488,0.4297,0.3027,0.1025,0.2734
0.061,0.0342,0.0415,0.0024,0.0024,0.0439,0.459,0.3101,0.0513,0.2661
0.0513,0.0415,0.0488,0.0024,0.0049,0.0513,0.4224,0.3198,0.061,0.2759
0.0586,0.0684,0.0439,0.0024,0.0024,0.0635,0.5811,0.3418,0.1367,0.2686
0.0269,0.0732,0.105,0.0024,0.0024,0.0415,0.5737,0.2637,0.1538,0.2759
0.0342,0.0757,0.127,0.0024,0.0024,0.0439,0.5518,0.2808,0.1611,0.2783
0.0342,0.1025,0.127,0.0024,0.0024,0.0439,0.4785,0.2686,0.1563,0.2759
0.0317,0.1123,0.1245,0.0024,0.0024,0.0415,0.437,0.2612,0.1587,0.2759
0.0366,0.1074,0.0928,0.0024,0.0049,0.0537,0.5396,0.2979,0.0854,0.2759
0.0366,0.1318,0.0879,0.0024,0.0049,0.061,0.5542,0.3003,0.1611,0.271
0.0195,0.0464,0.0073,0.0024,0.0024,0.0342,0.5688,0.2539,0.0488,0.271
0.0122,0.0024,0.0024,0.0024,0.0024,0.0366,0.6348,0.2124,0.0269,0.2759
0.0122,0.0171,0.0171,0.0024,0.0024,0.0342,0.625,0.2026,0.0195,0.2832
0.0269,0.0146,0.0146,0.0024,0.0024,0.0635,0.5518,0.2661,0.0415,0.2783
0.0195,0.0049,0.0171,0.0024,0.0024,0.0415,0.5322,0.2832,0.0293,0.2832
0.0171,0.0244,0.022,0.0024,0.0024,0.0293,0.4395,0.2295,0.0171,0.3003
0.0073,0.0024,0.0073,0.0024,0.0024,0.022,0.3662,0.1953,0.0024,0.271
0.0049,0.0024,0.0439,0.0024,0.0049,0.0244,0.3784,0.2051,0.0562,0.2856
0.0073,0.0244,0.0269,0.0049,0.0024,0.022,0.354,0.1929,0.0366,0.2905
0.0171,0.0903,0.1416,0.0171,0.0024,0.0537,1.6235,0.2783,0.0244,0.2612
0.0195,0.1123,0.144,0.0269,0.0024,0.0537,1.5845,0.2783,0.0293,0.2612
0.0171,0.1123,0.1416,0.0366,0.0024,0.0513,1.4844,0.271,0.0269,0.2637
0.0122,0.2173,0.1123,0.0269,0.0024,0.0342,1.5234,0.2612,0.0024,0.2612
0.0562,0.4614,0.1758,0.0195,0.0024,0.0513,2.8198,0.3003,0.0879,0.2563
0.0757,0.5981,0.1831,0.0464,0.0073,0.0977,3.6304,0.3711,0.1221,0.2588
0.1196,0.6787,0.293,0.083,0.0293,0.1611,4.6655,0.4907,0.1831,0.2588
0.127,0.8472,0.2832,0.0903,0.0317,0.1538,4.6631,0.5103,0.1904,0.2637
0.3369,1.2109,0.4248,0.1343,0.0708,0.3711,4.6509,0.9912,0.3296,0.2832
0.3223,1.1353,0.4199,0.1221,0.0659,0.3638,4.6631,0.9961,0.3247,0.2856
0.3149,1.1182,0.437,0.1147,0.0635,0.354,4.6631,0.9546,0.3125,0.2881
0.3076,1.311,0.415,0.144,0.0586,0.4004,4.6558,0.7886,0.3345,0.2905
0.2832,1.3159,0.4004,0.1318,0.0635,0.4639,4.6606,0.8105,0.3296,0.2905
0.2612,1.1475,0.415,0.1245,0.0562,0.4272,4.6631,0.8374,0.2783,0.2832
0.2173,0.9253,0.3613,0.0781,0.0659,0.3418,4.6606,0.7031,0.2002,0.2539
0.21,0.896,0.3247,0.0708,0.0635,0.3369,4.6606,0.6812,0.1978,0.2539
0.2246,0.9692,0.3931,0.083,0.0562,0.2319,4.6118,0.6152,0.2637,0.2734
0.2319,0.9326,0.354,0.0806,0.0513,0.2051,4.5508,0.625,0.2319,0.2808
0.2051,1.0034,0.2905,0.1074,0.0488,0.2344,4.6606,0.6201,0.1587,0.2563
0.2002,0.9619,0.271,0.0952,0.0464,0.2319,4.6606,0.5957,0.1489,0.2637
0.2051,0.9204,0.3174,0.0854,0.0391,0.2271,4.6631,0.5884,0.1318,0.2637
0.2344,0.7251,0.3516,0.0903,0.0464,0.2124,4.6606,0.6152,0.2026,0.2612
0.1807,0.7202,0.2979,0.0903,0.0513,0.1782,4.6631,0.4565,0.1782,0.2539
0.1782,0.7397,0.2808,0.0708,0.0415,0.1709,4.6631,0.5151,0.1465,0.2661
0.1758,0.7153,0.2759,0.0708,0.0366,0.1733,4.6606,0.542,0.1367,0.2661
0.1538,0.7861,0.2637,0.0635,0.0293,0.1733,4.6533,0.4077,0.1758,0.2612
0.1709,0.7642,0.2271,0.0854,0.0269,0.1685,4.502,0.5054,0.1904,0.2661
0.1758,0.7715,0.2051,0.0806,0.0244,0.1733,4.3384,0.5078,0.1855,0.2661
0.166,0.8716,0.188,0.0708,0.022,0.1733,4.2017,0.498,0.1758,0.2661
0.1587,0.9595,0.1831,0.061,0.0195,0.1733,4.3384,0.4907,0.1807,0.271
0.1465,0.9424,0.2197,0.0415,0.0146,0.1611,4.6289,0.4126,0.1685,0.271
0.1587,0.8203,0.2539,0.0342,0.0098,0.1465,3.9087,0.4468,0.1392,0.2759
0.1587,0.791,0.249,0.0293,0.0098,0.1465,3.7158,0.4321,0.1294,0.2783
0.1782,0.7568,0.271,0.0244,0.0122,0.166,3.8013,0.4175,0.1294,0.2686
0.0977,0.8521,0.2271,0.0244,0.0024,0.1367,4.4458,0.3589,0.1318,0.2563
0.0977,0.8325,0.2856,0.0391,0.0024,0.1294,4.4873,0.3516,0.1392,0.2515
0.0977,0.7959,0.293,0.0415,0.0049,0.1392,4.6631,0.3687,0.1367,0.2515
0.0952,0.6787,0.2393,0.0684,0.0122,0.1416,4.2676,0.3833,0.1294,0.2686
0.0757,0.5884,0.0952,0.0537,0.0122,0.1245,4.3262,0.3027,0.0977,0.2661
0.061,0.6055,0.1978,0.0293,0.0049,0.1001,3.54,0.2368,0.0781,0.2539
0.1001,0.6348,0.1807,0.0293,0.0171,0.1172,3.6597,0.4468,0.0879,0.2588
0.1074,1.0498,0.2588,0.0854,0.0146,0.1416,4.5947,0.4419,0.1709,0.2563
0.1221,0.8374,0.1611,0.0391,0.0073,0.1196,4.2456,0.3931,0.1025,0.2686
0.0879,0.6348,0.1123,0.022,0.0024,0.1147,3.5938,0.3564,0.0757,0.2856
0.0537,0.3882,0.0586,0.0171,0.0024,0.0977,2.9175,0.3101,0.0513,0.2905
0.0488,0.481,0.0488,0.0024,0.0024,0.0806,2.7515,0.2539,0.0195,0.2905
0.0537,0.52,0.0439,0.0024,0.0024,0.0732,2.6221,0.2539,0.0122,0.2881
0.0391,0.4761,0.2686,0.0366,0.0024,0.1147,2.3218,0.2295,0.3101,0.2612
0.0342,0.4614,0.2515,0.0244,0.0024,0.0903,2.0679,0.2197,0.3101,0.2612
0.061,0.3638,0.249,0.0269,0.0024,0.1074,2.1362,0.2832,0.1855,0.249
0.0635,0.4614,0.2563,0.0269,0.0024,0.0977,2.0288,0.2856,0.1758,0.2466
0.0562,0.5127,0.3735,0.0073,0.0049,0.0757,1.6309,0.2588,0.3247,0.2515
0.022,0.0024,0.0024,0.0024,0.0024,0.0684,0.7568,0.2441,0.0024,0.271
0.0122,0.0024,0.0024,0.0024,0.0049,0.0488,0.6494,0.2051,0.0024,0.2954
0.0195,0.0024,0.0024,0.0024,0.0024,0.0586,0.5981,0.2319,0.0024,0.2954
0.0269,0.0024,0.0024,0.0024,0.0024,0.1074,0.6958,0.2637,0.0049,0.2881
0.0171,0.1196,0.0317,0.0049,0.0024,0.0562,1.4429,0.2002,0.0024,0.2759
0.0488,0.5371,0.0708,0.0024,0.0024,0.0366,2.5049,0.2832,0.0073,0.2637
0.0415,0.4932,0.0757,0.0024,0.0024,0.0366,2.6001,0.2881,0.0195,0.2734
0.0391,0.5103,0.0635,0.0024,0.0024,0.0366,2.5049,0.2808,0.0195,0.2734
0.0928,0.6885,0.1489,0.0415,0.0024,0.1147,4.3701,0.3711,0.0952,0.2832
0.0977,0.9473,0.21,0.0488,0.0073,0.1221,4.6631,0.3857,0.1001,0.271
0.1514,0.9253,0.3369,0.1245,0.0146,0.1367,4.6655,0.4663,0.166,0.2734
0.188,0.8423,0.2905,0.1245,0.0244,0.1611,4.6606,0.5151,0.1709,0.2661
0.21,0.8008,0.3125,0.1196,0.0269,0.188,4.6582,0.5615,0.1611,0.2637
0.2295,1.0669,0.376,0.1074,0.0366,0.1489,4.6606,0.6299,0.1538,0.2734
0.2295,0.9058,0.3027,0.127,0.0439,0.2319,4.6655,0.603,0.1855,0.2808
0.2246,0.8667,0.2881,0.1221,0.0391,0.2271,4.6631,0.603,0.1807,0.2808
0.1953,0.8374,0.2637,0.0952,0.0391,0.1563,4.6631,0.5591,0.1392,0.2905
0.21,0.8545,0.2319,0.0952,0.0293,0.1489,4.6631,0.5347,0.1294,0.2808
0.2051,0.7861,0.166,0.0757,0.0342,0.1733,4.6655,0.542,0.1123,0.2734
0.1245,0.918,0.1733,0.0342,0.0293,0.1636,4.2505,0.3931,0.0854,0.2783
0.0903,0.7935,0.2026,0.0757,0.0122,0.0903,4.248,0.3589,0.0952,0.2856
0.1099,0.7886,0.1831,0.0781,0.0146,0.105,4.2383,0.3857,0.0952,0.2808
0.1196,0.8057,0.3662,0.1538,0.0342,0.1147,4.6338,0.4199,0.1733,0.3003
0.1611,0.7446,0.2759,0.0977,0.0146,0.1343,4.5288,0.4492,0.1587,0.271
0.1294,0.7031,0.249,0.0854,0.0195,0.1465,4.6631,0.437,0.1611,0.271
0.1196,0.752,0.3052,0.083,0.0293,0.127,4.6606,0.3906,0.1855,0.2539
0.1221,0.6836,0.2539,0.083,0.0317,0.1099,4.6631,0.4639,0.1221,0.2759
0.1147,0.6641,0.2783,0.0806,0.0293,0.1001,4.6655,0.459,0.1196,0.2808
0.1172,0.6812,0.2344,0.0781,0.0269,0.1343,4.6631,0.4297,0.1025,0.2637
