0.2051,0.1758,0.1758,0.0732,0.0024,0.0024,0.0024,0.0073,0.5615,0.0024
0.21,0.1538,0.1807,0.0952,0.0024,0.0024,0.0024,0.0122,0.7129,0.0024
0.1807,0.1782,0.1172,0.0903,0.0024,0.0024,0.0024,0.0024,0.6128,0.0024
0.1733,0.2417,0.1318,0.1099,0.0024,0.0024,0.0024,0.0049,0.6567,0.0024
0.1782,0.0952,0.0977,0.0684,0.0024,0.0024,0.0024,0.0098,0.4907,0.0024
0.1514,0.0342,0.0854,0.0757,0.0024,0.0024,0.0024,0.0024,0.3857,0.0024
0.1099,0.0537,0.0635,0.0415,0.0024,0.0024,0.0024,0.0024,0.2686,0.0024
0.1465,0.0879,0.1538,0.0781,0.0024,0.0024,0.0024,0.0024,0.459,0.0024
0.1172,0.0513,0.1367,0.0537,0.0024,0.0024,0.0024,0.0024,0.4248,0.0024
0.1538,0.1099,0.1611,0.1099,0.0024,0.0024,0.0024,0.0024,0.686,0.0024
0.1343,0.0879,0.2075,0.0854,0.0024,0.0024,0.0024,0.0024,0.5542,0.0024
0.1074,0.0684,0.1001,0.0708,0.0024,0.0024,0.0024,0.0024,0.415,0.0024
0.0952,0.0073,0.0439,0.0293,0.0024,0.0024,0.0024,0.0049,0.2563,0.0024
0.2026,0.1294,0.1245,0.0293,0.0024,0.0024,0.0024,0.0024,0.2979,0.0024
0.1025,0.1001,0.0879,0.0195,0.0024,0.0024,0.0024,0.0024,0.188,0.0024
0.0854,0.061,0.0806,0.0562,0.0049,0.0024,0.0024,0.0024,0.4907,0.0024
0.0977,0.0879,0.1758,0.0732,0.0024,0.0024,0.0024,0.0024,0.459,0.0024
0.1025,0.1245,0.127,0.0708,0.0024,0.0024,0.0024,0.0024,0.4565,0.0024
0.1099,0.1855,0.1416,0.0806,0.0024,0.0024,0.0024,0.0024,0.4565,0.0024
0.1147,0.1904,0.166,0.083,0.0024,0.0024,0.0024,0.0049,0.4297,0.0024
0.0928,0.1099,0.1538,0.0757,0.0049,0.0024,0.0024,0.0024,0.5469,0.0024
0.0513,0.022,0.0879,0.0366,0.0024,0.0024,0.0024,0.0024,0.3345,0.0024
0.0854,0.166,0.0952,0.0317,0.0024,0.0024,0.0024,0.0073,0.2612,0.0024
0.0977,0.1758,0.1538,0.0293,0.0024,0.0024,0.0024,0.0073,0.1709,0.0024
0.1172,0.1514,0.1563,0.0366,0.0024,0.0024,0.0024,0.0049,0.1563,0.0024
0.0757,0.0293,0.0562,0.0488,0.0024,0.0024,0.0024,0.0024,0.4565,0.0024
0.1636,0.3198,0.1318,0.0806,0.0024,0.0024,0.0024,0.022,0.4517,0.0024
0.1318,0.2588,0.1514,0.0659,0.0024,0.0024,0.0024,0.0146,0.4932,0.0024
0.1709,0.2881,0.1367,0.0537,0.0024,0.0024,0.0024,0.0171,0.5518,0.0024
0.1294,0.2661,0.1685,0.0586,0.0024,0.0024,0.0024,0.0049,0.3442,0.0024
0.1807,0.2759,0.1416,0.0293,0.0024,0.0024,0.0024,0.0122,0.3784,0.0024
0.2393,0.2588,0.1245,0.0439,0.0024,0.0024,0.0024,0.0195,0.5103,0.0049
0.1831,0.2246,0.1685,0.0415,0.0024,0.0024,0.0024,0.0073,0.2124,0.0024
0.2319,0.3052,0.1733,0.0342,0.0024,0.0024,0.0024,0.0171,0.2441,0.0024
0.1733,0.1953,0.1367,0.0708,0.0024,0.0024,0.0024,0.0098,0.4248,0.0024
0.1733,0.2466,0.1123,0.061,0.0024,0.0024,0.0024,0.0024,0.4077,0.0024
0.1733,0.2637,0.1416,0.0708,0.0024,0.0024,0.0024,0.0024,0.4834,0.0024
0.1538,0.1855,0.1685,0.0684,0.0024,0.0024,0.0024,0.0073,0.4346,0.0024
0.2124,0.2637,0.1807,0.1099,0.0024,0.0024,0.0024,0.0586,0.5103,0.0122
0.188,0.1123,0.0928,0.0464,0.0024,0.0024,0.0024,0.0195,0.3418,0.0024
0.3906,0.1172,0.0879,0.0146,0.0024,0.0024,0.0024,0.0415,0.2026,0.0024
0.2368,0.1099,0.0415,0.0098,0.0024,0.0024,0.0024,0.0073,0.2417,0.0024
0.3174,0.1367,0.105,0.0464,0.0024,0.0024,0.0024,0.0195,0.2832,0.0024
0.4224,0.1172,0.0806,0.022,0.0024,0.0024,0.0024,0.022,0.1953,0.0024
0.4126,0.1001,0.0806,0.0244,0.0024,0.0024,0.0024,0.022,0.2319,0.0024
0.3564,0.0757,0.0659,0.0171,0.0024,0.0024,0.0024,0.0146,0.2466,0.0024
0.1636,0.0977,0.0854,0.0415,0.0024,0.0024,0.0024,0.0098,0.3003,0.0024
0.1709,0.1538,0.1025,0.0342,0.0024,0.0024,0.0024,0.0122,0.249,0.0024
0.1196,0.0073,0.0708,0.0464,0.0024,0.0024,0.0024,0.0024,0.2808,0.0024
0.1465,0.1392,0.1172,0.0586,0.0024,0.0024,0.0024,0.0024,0.3711,0.0024
0.127,0.0391,0.0903,0.0269,0.0024,0.0024,0.0024,0.0024,0.2954,0.0024
0.1636,0.0024,0.0635,0.0049,0.0024,0.0024,0.0024,0.0024,0.1904,0.0024
0.1318,0.0024,0.022,0.0049,0.0024,0.0024,0.0024,0.0024,0.0513,0.0024
0.1172,0.0684,0.1074,0.022,0.0024,0.0024,0.0024,0.0024,0.188,0.0024
0.188,0.2124,0.0903,0.0171,0.0024,0.0024,0.0024,0.0098,0.1001,0.0024
0.2197,0.3394,0.0806,0.0024,0.0024,0.0024,0.0024,0.0195,0.0269,0.0024
0.2148,0.2686,0.105,0.0171,0.0024,0.0024,0.0024,0.0171,0.1294,0.0024
0.1855,0.2832,0.1025,0.022,0.0024,0.0024,0.0024,0.0073,0.2173,0.0024
0.1709,0.2856,0.1074,0.0269,0.0024,0.0024,0.0024,0.0024,0.2271,0.0024
0.2002,0.4199,0.1904,0.0513,0.0024,0.0024,0.0024,0.0073,0.1587,0.0024
0.3564,0.9082,0.249,0.1099,0.0024,0.0024,0.0024,0.0366,0.2661,0.0024
0.4053,0.5811,0.1538,0.0537,0.0024,0.0024,0.0024,0.0366,0.1343,0.0024
0.3979,0.8496,0.1611,0.061,0.0024,0.0024,0.0024,0.0366,0.2075,0.0024
0.4785,0.8569,0.1709,0.0659,0.0024,0.0024,0.0024,0.0415,0.2344,0.0024
0.3955,0.8398,0.166,0.0488,0.0049,0.0024,0.0049,0.0415,0.1392,0.0049
0.4077,0.9106,0.1587,0.0464,0.0024,0.0024,0.0049,0.0488,0.1147,0.0049
0.4102,0.9106,0.1489,0.0415,0.0024,0.0024,0.0024,0.0488,0.0903,0.0049
0.2783,0.8228,0.1587,0.0439,0.0024,0.0024,0.0024,0.0342,0.0952,0.0024
0.2368,0.6689,0.1245,0.0244,0.0024,0.0024,0.0024,0.0195,0.0562,0.0024
0.2759,0.6665,0.1465,0.0757,0.0024,0.0024,0.0024,0.022,0.1196,0.0024
0.3955,0.7544,0.1904,0.0684,0.0024,0.0024,0.0049,0.0317,0.1807,0.0122
0.3711,0.7129,0.1782,0.0586,0.0024,0.0024,0.0024,0.0317,0.1514,0.0024
0.3369,0.6396,0.1538,0.0488,0.0024,0.0024,0.0024,0.0293,0.1099,0.0024
0.2905,0.7031,0.1001,0.0122,0.0024,0.0024,0.0024,0.0244,0.1123,0.0024
0.3101,0.5762,0.1758,0.0562,0.0024,0.0024,0.0024,0.022,0.1343,0.0073
0.3296,0.7251,0.1587,0.0684,0.0024,0.0024,0.0024,0.0293,0.1489,0.0073
0.3296,0.7251,0.1636,0.0854,0.0024,0.0024,0.0024,0.0293,0.1343,0.0024
0.3345,0.6665,0.1611,0.0903,0.0024,0.0024,0.0024,0.0269,0.1147,0.0024
0.2881,0.5713,0.0977,0.0366,0.0024,0.0024,0.0024,0.0269,0.0928,0.0024
0.2002,0.6543,0.1538,0.0586,0.0049,0.0024,0.0024,0.0171,0.1782,0.0024
0.2441,0.3735,0.0659,0.0073,0.0024,0.0024,0.0024,0.0146,0.1343,0.0024
0.2759,0.5957,0.0879,0.0171,0.0024,0.0024,0.0024,0.0171,0.1709,0.0024
0.1709,0.5615,0.1172,0.0269,0.0024,0.0024,0.0024,0.0122,0.2417,0.0024
0.2148,0.4956,0.2026,0.061,0.0024,0.0024,0.0024,0.0122,0.2075,0.0024
0.1758,0.4443,0.1123,0.0293,0.0024,0.0024,0.0024,0.0049,0.0781,0.0024
0.1001,0.3491,0.083,0.0342,0.0024,0.0024,0.0024,0.0024,0.1367,0.0024
0.1733,0.3589,0.1465,0.0928,0.0024,0.0024,0.0024,0.0073,0.249,0.0024
0.1978,0.4443,0.127,0.0586,0.0024,0.0024,0.0024,0.0171,0.188,0.0024
0.3149,0.7446,0.1392,0.0317,0.0024,0.0024,0.0024,0.0269,0.1758,0.0024
0.2539,0.6201,0.1807,0.0391,0.0024,0.0024,0.0024,0.022,0.2588,0.0024
0.2246,0.5493,0.1685,0.0415,0.0024,0.0024,0.0024,0.0195,0.2563,0.0024
0.2832,0.6177,0.1318,0.0024,0.0024,0.0024,0.0024,0.0244,0.1538,0.0024
0.2271,0.5054,0.1733,0.0586,0.0024,0.0024,0.0024,0.0195,0.2588,0.0024
0.2295,0.3857,0.1538,0.0684,0.0024,0.0024,0.0024,0.0171,0.4468,0.0024
0.3125,0.4785,0.1953,0.0708,0.0024,0.0024,0.0024,0.0122,0.3833,0.0024
0.2905,0.4297,0.1733,0.061,0.0024,0.0024,0.0024,0.0073,0.3564,0.0024
0.2124,0.3271,0.1489,0.0757,0.0024,0.0024,0.0024,0.0024,0.3271,0.0024
0.0854,0.1807,0.0903,0.0415,0.0024,0.0024,0.0024,0.0024,0.21,0.0024
0.0757,0.1636,0.1172,0.0488,0.0024,0.0024,0.0024,0.0024,0.1611,0.0024
0.0708,0.2222,0.1416,0.0635,0.0024,0.0024,0.0024,0.0024,0.1929,0.0024
0.0684,0.2222,0.1245,0.0684,0.0024,0.0024,0.0024,0.0024,0.1709,0.0024
0.061,0.2173,0.0952,0.0586,0.0024,0.0024,0.0024,0.0024,0.1465,0.0024
0.1025,0.3833,0.1196,0.0439,0.0024,0.0024,0.0024,0.0073,0.1074,0.0024
0.0024,0.0513,0.0977,0.0708,0.0024,0.0024,0.0024,0.0024,0.1782,0.0024
0.0244,0.0195,0.0708,0.0415,0.0049,0.0024,0.0024,0.0024,0.0806,0.0024
0.0586,0.1392,0.1514,0.0879,0.0024,0.0024,0.0024,0.0024,0.2661,0.0024
0.0464,0.1123,0.1367,0.0952,0.0024,0.0024,0.0024,0.0024,0.2563,0.0024
0.0659,0.2246,0.0952,0.0977,0.0024,0.0024,0.0024,0.0024,0.2881,0.0024
0.0977,0.2759,0.083,0.0537,0.0024,0.0024,0.0024,0.0073,0.1782,0.0024
0.1465,0.3955,0.1318,0.0854,0.0024,0.0024,0.0024,0.0171,0.0977,0.0024
0.1221,0.4956,0.1929,0.0806,0.0024,0.0024,0.0024,0.0049,0.188,0.0024
0.0757,0.1831,0.127,0.0562,0.0024,0.0024,0.0024,0.0024,0.144,0.0024
0.0659,0.3076,0.1294,0.061,0.0024,0.0024,0.0024,0.0024,0.1221,0.0024
0.0635,0.2881,0.105,0.0659,0.0024,0.0024,0.0024,0.0024,0.144,0.0024
0.0024,0.0024,0.1172,0.0342,0.0049,0.0024,0.0024,0.0024,0.2417,0.0024
0.0024,0.0024,0.0928,0.0317,0.0024,0.0024,0.0024,0.0024,0.2124,0.0024
0.0073,0.0488,0.0757,0.0488,0.0024,0.0024,0.0024,0.0024,0.3345,0.0024
0.0757,0.1001,0.1294,0.0635,0.0024,0.0024,0.0024,0.0024,0.2295,0.0024
0.1318,0.2002,0.0659,0.022,0.0024,0.0024,0.0024,0.0024,0.2612,0.0024
0.1587,0.2368,0.1563,0.0757,0.0024,0.0024,0.0024,0.0024,0.271,0.0024
0.061,0.0122,0.0854,0.0513,0.0024,0.0024,0.0024,0.0024,0.2417,0.0024
0.0586,0.0464,0.0928,0.0586,0.0024,0.0024,0.0024,0.0024,0.2197,0.0024
0.0806,0.2319,0.105,0.0366,0.0073,0.0024,0.0024,0.0024,0.1489,0.0024
0.0635,0.2222,0.0684,0.0244,0.0024,0.0024,0.0024,0.0024,0.1343,0.0024
0.0366,0.1489,0.1489,0.0635,0.0024,0.0024,0.0024,0.0024,0.2148,0.0024
0.1221,0.2393,0.0977,0.022,0.0024,0.0024,0.0024,0.0098,0.166,0.0024
0.0854,0.1465,0.1025,0.0391,0.0024,0.0024,0.0024,0.0024,0.188,0.0024
0.0757,0.0488,0.0659,0.0244,0.0024,0.0024,0.0024,0.0024,0.2002,0.0024
0.0049,0.0415,0.0293,0.0024,0.0024,0.0024,0.0024,0.0024,0.083,0.0024
0.0024,0.0488,0.0342,0.0024,0.0024,0.0024,0.0024,0.0024,0.1367,0.0024
0.0049,0.0879,0.0024,0.0073,0.0024,0.0024,0.0024,0.0024,0.0757,0.0024
0.0024,0.0024,0.0073,0.0024,0.0024,0.0024,0.0024,0.0049,0.0708,0.0024
0.0024,0.0024,0.0513,0.0073,0.0024,0.0024,0.0024,0.0024,0.0073,0.0024
0.0366,0.0024,0.0342,0.0073,0.0024,0.0024,0.0024,0.0024,0.0952,0.0024
0.0317,0.0024,0.0049,0.0024,0.0024,0.0024,0.0024,0.0024,0.1367,0.0024
0.0171,0.0024,0.0024,0.0024,0.0024,0.0024,0.0024,0.0024,0.1294,0.0024
0.0415,0.0024,0.0439,0.0024,0.0024,0.0024,0.0024,0.0024,0.0903,0.0024
0.0024,0.0024,0.0244,0.0024,0.0024,0.0024,0.0024,0.0024,0.0366,0.0024
0.0024,0.0024,0.0146,0.0049,0.0024,0.0024,0.0024,0.0024,0.0024,0.0024
0.0024,0.0024,0.0098,0.0024,0.0024,0.0024,0.0024,0.0024,0.0732,0.0024
0.0024,0.0024,0.061,0.0098,0.0024,0.0024,0.0024,0.0024,0.0903,0.0024
0.0024,0.0024,0.022,0.0024,0.0024,0.0024,0.0024,0.0024,0.0513,0.0024
0.0903,0.0024,0.0366,0.0024,0.0024,0.0024,0.0024,0.0024,0.0732,0.0024
0.1514,0.0024,0.0024,0.0024,0.0024,0.0024,0.0024,0.0024,0.0146,0.0024
0.1367,0.0024,0.0024,0.0024,0.0024,0.0024,0.0024,0.0024,0.0122,0.0024
0.0732,0.0024,0.0171,0.0024,0.0024,0.0024,0.0024,0.0024,0.1025,0.0024
0.0122,0.0024,0.0708,0.0024,0.0024,0.0024,0.0049,0.0024,0.0537,0.0024
0.0024,0.0024,0.0342,0.0024,0.0024,0.0024,0.0024,0.0024,0.0342,0.0024
0.0024,0.0024,0.0293,0.0024,0.0024,0.0024,0.0024,0.0024,0.0537,0.0024
0.0024,0.0024,0.0024,0.0024,0.0049,0.0024,0.0024,0.0024,0.0464,0.0024
0.0024,0.0024,0.0024,0.0024,0.0049,0.0024,0.0024,0.0049,0.0024,0.0024
0.0195,0.0024,0.0732,0.0464,0.0024,0.0024,0.0024,0.0024,0.1685,0.0024
0.0269,0.0024,0.0513,0.0366,0.0024,0.0024,0.0049,0.0024,0.1367,0.0024
0.0244,0.0024,0.0513,0.0317,0.0024,0.0024,0.0024,0.0024,0.1123,0.0024
0.0806,0.0024,0.0806,0.0464,0.0024,0.0024,0.0024,0.0024,0.2808,0.0024
0.0024,0.0024,0.0269,0.0073,0.0024,0.0024,0.0024,0.0024,0.0513,0.0024
0.0024,0.0024,0.0439,0.0122,0.0024,0.0024,0.0024,0.0024,0.1245,0.0024
0.0024,0.0024,0.0024,0.0244,0.0024,0.0024,0.0024,0.0024,0.0537,0.0024
0.0024,0.0024,0.0024,0.0195,0.0024,0.0024,0.0024,0.0024,0.0317,0.0024
0.0024,0.0024,0.0342,0.0293,0.0024,0.0024,0.0024,0.0024,0.0635,0.0024
0.0024,0.0024,0.0342,0.0049,0.0024,0.0024,0.0024,0.0024,0.0269,0.0024
0.0024,0.0024,0.0293,0.0024,0.0024,0.0024,0.0024,0.0024,0.0757,0.0024
0.0171,0.0024,0.0269,0.0171,0.0024,0.0024,0.0024,0.0024,0.1611,0.0024
0.0024,0.0024,0.0293,0.0049,0.0024,0.0024,0.0049,0.0024,0.0708,0.0024
0.0024,0.0024,0.0024,0.0098,0.0024,0.0024,0.0024,0.0024,0.0195,0.0024
0.0024,0.0024,0.022,0.0073,0.0024,0.0024,0.0024,0.0024,0.0464,0.0024
0.0024,0.0024,0.0269,0.0024,0.0024,0.0024,0.0024,0.0024,0.0366,0.0024
0.0024,0.0024,0.0049,0.0024,0.0024,0.0024,0.0024,0.0024,0.0366,0.0024
0.0024,0.0049,0.0146,0.0024,0.0024,0.0024,0.0024,0.0024,0.0195,0.0024
0.0024,0.0024,0.0195,0.0024,0.0024,0.0024,0.0024,0.0024,0.0049,0.0024
0.0024,0.0024,0.0391,0.0024,0.0024,0.0024,0.0024,0.0024,0.0806,0.0024
0.0024,0.0024,0.0171,0.0024,0.0024,0.0024,0.0049,0.0024,0.0122,0.0024
0.166,0.0024,0.0464,0.0024,0.0098,0.0024,0.0024,0.0024,0.0024,0.0024
0.1929,0.0024,0.0024,0.0024,0.0024,0.0024,0.0024,0.0024,0.0024,0.0024
0.0464,0.0024,0.0049,0.0024,0.0024,0.0024,0.0024,0.0024,0.0439,0.0024
0.0146,0.0024,0.0024,0.0024,0.0024,0.0024,0.0024,0.0024,0.0537,0.0024
0.0195,0.0024,0.0439,0.0024,0.0024,0.0024,0.0024,0.0024,0.0244,0.0024
0.0244,0.0024,0.0244,0.0024,0.0024,0.0024,0.0024,0.0024,0.0366,0.0024
0.0464,0.0024,0.0171,0.0024,0.0024,0.0024,0.0024,0.0024,0.0635,0.0024
0.0659,0.0049,0.0024,0.0024,0.0024,0.0024,0.0024,0.0024,0.1416,0.0024
0.0659,0.0024,0.0269,0.0024,0.0049,0.0024,0.0024,0.0024,0.144,0.0024
0.2954,0.376,0.0757,0.0317,0.0024,0.0024,0.0024,0.0317,0.0562,0.0024
0.3442,0.3223,0.1099,0.0195,0.0024,0.0024,0.0024,0.0293,0.0659,0.0024
0.1294,0.4175,0.061,0.0024,0.0024,0.0024,0.0024,0.0098,0.0024,0.0024
0.1489,0.2808,0.0244,0.0024,0.0024,0.0024,0.0024,0.0195,0.0024,0.0024
0.1538,0.2881,0.0122,0.0024,0.0024,0.0024,0.0024,0.0122,0.0024,0.0024
0.1514,0.3271,0.0195,0.0024,0.0024,0.0024,0.0024,0.0195,0.0024,0.0024
0.1245,0.2319,0.0098,0.0024,0.0024,0.0024,0.0024,0.0073,0.0024,0.0024
0.2588,0.5103,0.0757,0.0024,0.0024,0.0024,0.0024,0.0293,0.0024,0.0024
0.1636,0.2588,0.0244,0.0024,0.0024,0.0024,0.0024,0.0098,0.0024,0.0024
0.127,0.249,0.0317,0.0024,0.0049,0.0024,0.0024,0.0122,0.0024,0.0024
0.1978,0.4297,0.0269,0.0024,0.0024,0.0024,0.0024,0.0293,0.0024,0.0024
0.1782,0.3882,0.0293,0.0024,0.0024,0.0024,0.0024,0.0293,0.0024,0.0024
0.2905,0.7275,0.0806,0.0024,0.0024,0.0024,0.0024,0.0464,0.0024,0.0024
0.3101,0.7813,0.0952,0.0024,0.0024,0.0024,0.0024,0.0342,0.0024,0.0024
0.3564,0.8838,0.1245,0.0073,0.0024,0.0024,0.0024,0.0366,0.0024,0.0024
0.2368,0.6128,0.0659,0.0024,0.0024,0.0024,0.0024,0.0171,0.0024,0.0024
0.2612,0.686,0.0806,0.0024,0.0024,0.0024,0.0024,0.022,0.0024,0.0024
0.332,0.7813,0.0928,0.0024,0.0024,0.0024,0.0024,0.0366,0.0024,0.0024
0.2246,0.3564,0.0244,0.0024,0.0024,0.0024,0.0024,0.0244,0.0024,0.0024
0.1147,0.3198,0.0195,0.0024,0.0024,0.0024,0.0024,0.0024,0.0024,0.0024
0.1001,0.2979,0.0171,0.0024,0.0024,0.0024,0.0024,0.0024,0.0024,0.0024
0.0708,0.2734,0.0098,0.0024,0.0024,0.0024,0.0024,0.0024,0.0024,0.0024
0.2686,0.6396,0.0488,0.0024,0.0024,0.0024,0.0024,0.0269,0.0024,0.0024
0.21,0.3833,0.0269,0.0024,0.0024,0.0024,0.0024,0.0171,0.0024,0.0024
0.1611,0.4468,0.0171,0.0024,0.0024,0.0024,0.0024,0.0146,0.0024,0.0024
0.1733,0.4321,0.0171,0.0024,0.0024,0.0024,0.0024,0.022,0.0024,0.0024
0.0781,0.249,0.0024,0.0024,0.0024,0.0024,0.0024,0.0024,0.0024,0.0024
0.0635,0.1709,0.0024,0.0024,0.0024,0.0024,0.0024,0.0024,0.0024,0.0024
0.083,0.1636,0.0024,0.0024,0.0024,0.0024,0.0024,0.0049,0.0024,0.0024
0.0513,0.1904,0.0049,0.0024,0.0024,0.0024,0.0024,0.0024,0.0024,0.0024
0.127,0.3516,0.0269,0.0024,0.0024,0.0024,0.0024,0.0024,0.0024,0.0024
0.0952,0.1563,0.0049,0.0024,0.0024,0.0024,0.0024,0.0024,0.0024,0.0024
0.0342,0.1685,0.0024,0.0024,0.0049,0.0024,0.0024,0.0024,0.0024,0.0024
0.0488,0.1538,0.0024,0.0024,0.0024,0.0024,0.0024,0.0024,0.0024,0.0024
0.0781,0.21,0.0195,0.0024,0.0024,0.0024,0.0024,0.0024,0.0024,0.0024
0.0439,0.1538,0.0024,0.0024,0.0024,0.0024,0.0024,0.0024,0.0024,0.0024
0.0269,0.0928,0.0024,0.0024,0.0024,0.0024,0.0024,0.0024,0.0024,0.0024
0.0537,0.0806,0.0024,0.0024,0.0024,0.0024,0.0024,0.0024,0.0024,0.0024
0.0391,0.083,0.0024,0.0024,0.0024,0.0024,0.0024,0.0024,0.0024,0.0024
0.0366,0.0879,0.0024,0.0024,0.0024,0.0024,0.0024,0.0024,0.0024,0.0024
0.0415,0.0928,0.0024,0.0024,0.0024,0.0024,0.0024,0.0024,0.0024,0.0024
0.0415,0.1367,0.0122,0.0024,0.0024,0.0024,0.0024,0.0024,0.0024,0.0024
0.0415,0.1318,0.0024,0.0024,0.0024,0.0024,0.0024,0.0024,0.0024,0.0024
0.0269,0.0684,0.0024,0.0024,0.0024,0.0024,0.0024,0.0024,0.0024,0.0024
0.0586,0.1294,0.0024,0.0024,0.0024,0.0024,0.0024,0.0024,0.0024,0.0024
0.2759,0.1367,0.0024,0.0171,0.0024,0.0024,0.0024,0.022,0.0171,0.0024
0.1367,0.1025,0.0024,0.0073,0.0024,0.0024,0.0024,0.0024,0.0024,0.0024
0.105,0.0854,0.0049,0.0024,0.0024,0.0024,0.0024,0.0049,0.0024,0.0024
0.1001,0.0732,0.0024,0.0024,0.0024,0.0024,0.0024,0.0024,0.0024,0.0024
0.1123,0.1367,0.0098,0.0146,0.0049,0.0024,0.0024,0.0024,0.0024,0.0024
0.0879,0.1196,0.0024,0.0024,0.0024,0.0024,0.0024,0.0024,0.0024,0.0024
0.1538,0.1807,0.0073,0.0024,0.0024,0.0024,0.0024,0.0122,0.0024,0.0024
0.1147,0.1196,0.0024,0.0024,0.0024,0.0024,0.0024,0.0366,0.0024,0.0024
0.1514,0.2319,0.0171,0.0024,0.0024,0.0024,0.0024,0.0073,0.0024,0.0024
0.1416,0.249,0.0146,0.0024,0.0024,0.0024,0.0024,0.0098,0.0024,0.0024
0.1392,0.2173,0.0073,0.0024,0.0024,0.0024,0.0024,0.0073,0.0024,0.0024
0.083,0.1807,0.0024,0.0024,0.0024,0.0024,0.0024,0.0024,0.0024,0.0024
0.0806,0.2344,0.0073,0.0024,0.0024,0.0024,0.0024,0.0073,0.0024,0.0024
0.0952,0.2124,0.0122,0.0024,0.0024,0.0024,0.0024,0.0024,0.0024,0.0024
0.1196,0.4199,0.0293,0.0024,0.0024,0.0024,0.0024,0.0098,0.0024,0.0024
0.0732,0.1343,0.0073,0.0024,0.0024,0.0024,0.0024,0.0049,0.0024,0.0024
0.1074,0.2905,0.0269,0.0024,0.0024,0.0024,0.0024,0.0024,0.0024,0.0024
0.1147,0.2734,0.0171,0.0024,0.0024,0.0049,0.0024,0.0049,0.0024,0.0024
0.0854,0.2832,0.0195,0.0024,0.0049,0.0024,0.0024,0.0049,0.0024,0.0024
0.1318,0.3198,0.0146,0.0049,0.0024,0.0024,0.0024,0.0098,0.0024,0.0024
0.1025,0.2124,0.0049,0.0024,0.0024,0.0024,0.0024,0.0024,0.0024,0.0024
0.1001,0.2856,0.0195,0.0024,0.0024,0.0024,0.0024,0.0098,0.0024,0.0024
0.1343,0.3613,0.0293,0.0024,0.0024,0.0024,0.0024,0.0073,0.0024,0.0024
0.0806,0.2612,0.0098,0.0024,0.0024,0.0024,0.0024,0.0024,0.0024,0.0024
0.0781,0.2515,0.0073,0.0024,0.0024,0.0024,0.0024,0.0024,0.0024,0.0024
0.0879,0.1782,0.0024,0.0024,0.0024,0.0024,0.0024,0.0024,0.0024,0.0024
0.0391,0.1587,0.0073,0.0024,0.0024,0.0024,0.0024,0.0024,0.0024,0.0024
0.0586,0.2002,0.0049,0.0024,0.0024,0.0024,0.0024,0.0024,0.0024,0.0024
0.0415,0.127,0.0024,0.0024,0.0024,0.0024,0.0024,0.0024,0.0024,0.0024
0.0977,0.271,0.0146,0.0024,0.0024,0.0024,0.0024,0.0073,0.0024,0.0024
0.0244,0.0708,0.0024,0.0024,0.0024,0.0024,0.0024,0.0024,0.0024,0.0024
0.061,0.1392,0.0098,0.0024,0.0024,0.0024,0.0024,0.0024,0.0024,0.0024
0.0366,0.1587,0.0024,0.0024,0.0024,0.0024,0.0024,0.0024,0.0024,0.0024
0.0391,0.1587,0.0024,0.0024,0.0024,0.0024,0.0024,0.0024,0.0024,0.0024
0.0366,0.1465,0.0024,0.0024,0.0024,0.0024,0.0024,0.0024,0.0024,0.0024
0.0146,0.0708,0.0024,0.0024,0.0024,0.0024,0.0024,0.0024,0.0024,0.0024
0.0244,0.0903,0.0049,0.0024,0.0024,0.0024,0.0024,0.0049,0.0024,0.0024
0.0122,0.083,0.0024,0.0024,0.0024,0.0024,0.0024,0.0024,0.0024,0.0024
0.1074,0.2368,0.0317,0.0024,0.0024,0.0024,0.0024,0.0049,0.0024,0.0024
0.0879,0.1709,0.0122,0.0024,0.0024,0.0024,0.0024,0.0024,0.0024,0.0024
0.0244,0.2075,0.0317,0.0024,0.0024,0.0024,0.0049,0.0024,0.0024,0.0024
0.0049,0.0024,0.0024,0.0024,0.0024,0.0024,0.0024,0.0049,0.0024,0.0024
0.1538,0.0171,0.0024,0.0024,0.0024,0.0024,0.0024,0.0024,0.0024,0.0024
0.1538,0.0928,0.0024,0.0024,0.0024,0.0024,0.0024,0.0073,0.0024,0.0024
0.1758,0.0439,0.0024,0.0024,0.0024,0.0024,0.0024,0.0049,0.0024,0.0024
0.1807,0.0049,0.0024,0.0024,0.0024,0.0024,0.0024,0.0073,0.0024,0.0024
0.1538,0.0024,0.0024,0.0024,0.0024,0.0024,0.0024,0.0049,0.0024,0.0024
0.2173,0.0073,0.0024,0.0024,0.0024,0.0024,0.0024,0.0146,0.0024,0.0024
0.1465,0.0024,0.0024,0.0024,0.0024,0.0024,0.0024,0.0024,0.0024,0.0024
0.0439,0.0024,0.0024,0.0024,0.0024,0.0024,0.0024,0.0024,0.0024,0.0024
0.061,0.0439,0.0024,0.0024,0.0024,0.0024,0.0024,0.0024,0.0024,0.0024
0.0586,0.0269,0.0024,0.0024,0.0024,0.0024,0.0024,0.0024,0.0024,0.0024
0.0977,0.0024,0.0024,0.0024,0.0024,0.0024,0.0024,0.0024,0.0024,0.0024
0.0293,0.0024,0.0049,0.0024,0.0024,0.0024,0.0024,0.0415,0.0024,0.0024
0.0708,0.0024,0.022,0.0024,0.0024,0.0024,0.0024,0.0269,0.0879,0.0024
0.2832,0.0366,0.0195,0.0024,0.0024,0.0024,0.0024,0.0415,0.0024,0.0024
0.5273,0.061,0.0537,0.0024,0.0024,0.0024,0.0024,0.2881,0.0854,0.0293
0.3394,0.0244,0.0024,0.0024,0.0024,0.0024,0.0024,0.0757,0.0024,0.0049
0.2832,0.0269,0.0024,0.0024,0.0024,0.0024,0.0024,0.1294,0.0171,0.0049
0.3101,0.0415,0.0024,0.0024,0.0024,0.0024,0.0024,0.1489,0.0049,0.0171
0.2905,0.0073,0.0024,0.0024,0.0024,0.0024,0.0024,0.0977,0.0757,0.0195
0.3809,0.0122,0.0024,0.0024,0.0024,0.0024,0.0024,0.1221,0.0854,0.0122
0.2612,0.0024,0.0024,0.0024,0.0024,0.0024,0.0024,0.1196,0.0073,0.0098
0.2319,0.0073,0.0024,0.0024,0.0024,0.0024,0.0024,0.0806,0.0024,0.0024
0.1733,0.0073,0.0024,0.0024,0.0024,0.0024,0.0024,0.0903,0.0073,0.0024
0.1978,0.0269,0.0024,0.0024,0.0024,0.0024,0.0024,0.1099,0.0098,0.0024
0.2539,0.0488,0.0415,0.0024,0.0024,0.0024,0.0024,0.0854,0.0488,0.0098
0.1538,0.0513,0.0098,0.0024,0.0024,0.0024,0.0024,0.0391,0.0024,0.0073
0.1465,0.0244,0.0024,0.0024,0.0024,0.0024,0.0024,0.0098,0.0024,0.0024
0.1367,0.0464,0.0024,0.0024,0.0024,0.0024,0.0024,0.0049,0.0024,0.0024
0.127,0.0366,0.0024,0.0024,0.0024,0.0024,0.0024,0.0024,0.0024,0.0024
0.0513,0.0171,0.0024,0.0024,0.0024,0.0024,0.0024,0.0024,0.0024,0.0024
0.0244,0.0024,0.0024,0.0024,0.0024,0.0024,0.0024,0.0024,0.0024,0.0049
0.1099,0.0024,0.0024,0.0024,0.0024,0.0024,0.0024,0.0024,0.0024,0.0024
0.0635,0.0171,0.0024,0.0024,0.0024,0.0024,0.0024,0.0024,0.0024,0.0024
0.0439,0.0073,0.0024,0.0024,0.0024,0.0024,0.0024,0.0024,0.0024,0.0024
0.1855,0.0024,0.0024,0.0024,0.0024,0.0024,0.0024,0.0293,0.0024,0.0024
0.2026,0.0024,0.0049,0.0024,0.0024,0.0024,0.0024,0.0024,0.0024,0.0024
0.1465,0.0024,0.0049,0.0024,0.0024,0.0024,0.0024,0.0049,0.0024,0.0024
0.2173,0.0024,0.0024,0.0024,0.0024,0.0024,0.0024,0.0098,0.0024,0.0024
0.0928,0.0024,0.0024,0.0024,0.0024,0.0024,0.0024,0.0024,0.0024,0.0024
0.2441,0.0024,0.0024,0.0024,0.0024,0.0024,0.0024,0.083,0.0024,0.0024
0.1904,0.0024,0.0024,0.0024,0.0024,0.0024,0.0024,0.0684,0.0024,0.0024
0.127,0.0049,0.0049,0.0024,0.0024,0.0024,0.0024,0.0073,0.0024,0.0024
0.0391,0.0024,0.0024,0.0024,0.0049,0.0024,0.0024,0.0024,0.0024,0.0024
0.0024,0.0024,0.0024,0.0024,0.0024,0.0024,0.0024,0.0073,0.0024,0.0024
0.0024,0.0024,0.0049,0.0024,0.0024,0.0024,0.0024,0.0049,0.0024,0.0024
0.0391,0.1904,0.0098,0.0098,0.0024,0.0024,0.0024,0.0024,0.0024,0.0024
0.0122,0.1221,0.0024,0.0073,0.0049,0.0024,0.0024,0.0024,0.0049,0.0024
0.0586,0.1538,0.0146,0.0098,0.0024,0.0024,0.0024,0.0024,0.0171,0.0024
0.0464,0.3149,0.0098,0.0024,0.0024,0.0024,0.0024,0.0024,0.0024,0.0024
0.0757,0.2734,0.0098,0.0293,0.0024,0.0024,0.0024,0.0024,0.0024,0.0024
0.0513,0.2295,0.0146,0.0122,0.0024,0.0024,0.0024,0.0049,0.0049,0.0024
0.0903,0.3247,0.0024,0.0024,0.0024,0.0024,0.0024,0.0049,0.0024,0.0024
0.0488,0.2319,0.0024,0.0024,0.0024,0.0024,0.0024,0.0024,0.0024,0.0024
0.0293,0.1636,0.0024,0.0024,0.0024,0.0024,0.0024,0.0024,0.0024,0.0024
0.0415,0.271,0.0269,0.0024,0.0024,0.0024,0.0024,0.0049,0.0024,0.0024
0.022,0.1904,0.0024,0.0024,0.0024,0.0024,0.0024,0.0024,0.0024,0.0024
0.1147,0.293,0.0146,0.0024,0.0024,0.0024,0.0024,0.0024,0.0024,0.0024
0.2124,0.5493,0.0757,0.0024,0.0024,0.0024,0.0024,0.022,0.0024,0.0024
0.2661,0.7788,0.1172,0.0049,0.0024,0.0024,0.0024,0.0293,0.0024,0.0024
0.1514,0.5054,0.0781,0.0024,0.0024,0.0024,0.0024,0.0073,0.0024,0.0024
0.1929,0.7007,0.0903,0.0024,0.0024,0.0024,0.0024,0.0098,0.0024,0.0024
0.1978,0.603,0.0391,0.0024,0.0024,0.0024,0.0024,0.0098,0.0024,0.0024
0.0781,0.3027,0.0049,0.0024,0.0024,0.0024,0.0024,0.0024,0.0024,0.0024
0.0586,0.2417,0.0024,0.0024,0.0024,0.0024,0.0024,0.0024,0.0024,0.0024
0.0586,0.2319,0.0024,0.0024,0.0024,0.0024,0.0024,0.0024,0.0024,0.0024
0.0708,0.1392,0.022,0.0024,0.0024,0.0024,0.0024,0.0073,0.0024,0.0024
0.0513,0.1099,0.0122,0.0024,0.0024,0.0024,0.0024,0.0024,0.0024,0.0024
0.127,0.4248,0.061,0.0024,0.0024,0.0024,0.0024,0.0049,0.0024,0.0024
0.1587,0.5054,0.0757,0.0024,0.0024,0.0024,0.0024,0.0049,0.0024,0.0024
0.1489,0.542,0.0708,0.0024,0.0049,0.0024,0.0024,0.0171,0.0024,0.0024
0.1001,0.3857,0.0415,0.0024,0.0024,0.0024,0.0024,0.0049,0.0024,0.0024
0.1123,0.3906,0.0513,0.0024,0.0024,0.0024,0.0024,0.0024,0.0024,0.0024
0.0928,0.3491,0.0317,0.0024,0.0024,0.0024,0.0024,0.0073,0.0024,0.0024
0.1245,0.4614,0.0439,0.0024,0.0024,0.0024,0.0024,0.0073,0.0024,0.0024
0.1343,0.4907,0.0464,0.0024,0.0024,0.0024,0.0024,0.0073,0.0024,0.0024
0.0977,0.3149,0.0415,0.0024,0.0024,0.0024,0.0024,0.0049,0.0024,0.0024
0.0562,0.2881,0.0195,0.0024,0.0049,0.0024,0.0024,0.0024,0.0024,0.0024
0.0903,0.3052,0.0391,0.0024,0.0024,0.0024,0.0024,0.0146,0.0024,0.0024
0.0879,0.3613,0.0342,0.0024,0.0024,0.0024,0.0024,0.0049,0.0024,0.0024
0.1538,0.4199,0.0562,0.0024,0.0024,0.0024,0.0024,0.0146,0.0024,0.0024
0.0977,0.3613,0.0415,0.0024,0.0024,0.0024,0.0024,0.0024,0.0024,0.0024
0.0757,0.3027,0.0269,0.0024,0.0024,0.0024,0.0024,0.0024,0.0024,0.0024
0.083,0.2734,0.0244,0.0024,0.0024,0.0024,0.0024,0.0049,0.0024,0.0024
0.0293,0.2466,0.022,0.0024,0.0049,0.0024,0.0024,0.0024,0.0024,0.0024
0.022,0.2026,0.0171,0.0024,0.0024,0.0024,0.0024,0.0024,0.0024,0.0024
0.022,0.2002,0.0073,0.0024,0.0024,0.0024,0.0024,0.0024,0.0024,0.0024
0.0269,0.1978,0.0024,0.0024,0.0024,0.0024,0.0024,0.0024,0.0024,0.0024
0.0439,0.21,0.0146,0.0024,0.0024,0.0024,0.0024,0.0024,0.0024,0.0024
0.0073,0.21,0.0073,0.0024,0.0024,0.0024,0.0024,0.0024,0.0024,0.0024
0.0439,0.2808,0.0122,0.0024,0.0024,0.0024,0.0024,0.0024,0.0024,0.0024
0.0098,0.1489,0.0049,0.0024,0.0024,0.0024,0.0024,0.0024,0.0024,0.0024
0.0439,0.144,0.0146,0.0024,0.0024,0.0024,0.0024,0.0024,0.0024,0.0024
0.0195,0.0806,0.0024,0.0024,0.0024,0.0024,0.0024,0.0024,0.0024,0.0024
0.0195,0.0952,0.0024,0.0024,0.0024,0.0024,0.0024,0.0024,0.0024,0.0024
0.0464,0.2271,0.0317,0.0024,0.0024,0.0024,0.0024,0.0024,0.0024,0.0024
0.0342,0.2075,0.0317,0.0024,0.0024,0.0024,0.0024,0.0024,0.0024,0.0024
0.022,0.2075,0.0024,0.0024,0.0024,0.0024,0.0024,0.0024,0.0024,0.0024
0.0317,0.0806,0.0024,0.0024,0.0024,0.0024,0.0024,0.0024,0.0024,0.0024
0.022,0.061,0.0024,0.0024,0.0049,0.0024,0.0024,0.0024,0.0024,0.0024
0.0537,0.188,0.0122,0.0024,0.0024,0.0024,0.0024,0.0049,0.0024,0.0024
0.0464,0.1001,0.0073,0.0024,0.0024,0.0024,0.0024,0.0024,0.0024,0.0024
0.0854,0.3931,0.0391,0.0024,0.0024,0.0024,0.0024,0.0024,0.0024,0.0024
0.061,0.2612,0.0098,0.0024,0.0024,0.0024,0.0024,0.0024,0.0024,0.0024
0.0488,0.2686,0.0098,0.0024,0.0024,0.0024,0.0024,0.0024,0.0024,0.0024
0.0366,0.1978,0.0122,0.0024,0.0024,0.0024,0.0024,0.0024,0.0024,0.0024
0.0513,0.2637,0.0073,0.0024,0.0024,0.0024,0.0024,0.0024,0.0049,0.0024
0.0537,0.1953,0.0171,0.0024,0.0024,0.0024,0.0024,0.0024,0.0024,0.0024
0.0415,0.166,0.0024,0.0024,0.0024,0.0024,0.0024,0.0024,0.0024,0.0024
0.061,0.3003,0.0098,0.0024,0.0024,0.0024,0.0049,0.0024,0.0024,0.0024
0.061,0.3247,0.0171,0.0024,0.0024,0.0024,0.0024,0.0024,0.0024,0.0024
0.0684,0.2954,0.0122,0.0024,0.0024,0.0024,0.0024,0.0024,0.0024,0.0024
0.0952,0.3467,0.022,0.0024,0.0024,0.0024,0.0024,0.0049,0.0024,0.0024
0.061,0.2637,0.0073,0.0024,0.0024,0.0024,0.0024,0.0024,0.0024,0.0024
0.0464,0.2295,0.0073,0.0024,0.0024,0.0024,0.0024,0.0049,0.0024,0.0024
0.0098,0.127,0.0024,0.0024,0.0024,0.0024,0.0024,0.0024,0.0024,0.0024
0.0146,0.1196,0.0024,0.0024,0.0024,0.0024,0.0024,0.0024,0.0024,0.0024
0.0366,0.1245,0.0049,0.0024,0.0024,0.0024,0.0024,0.0024,0.0024,0.0024
0.022,0.1172,0.0024,0.0024,0.0024,0.0024,0.0024,0.0024,0.0024,0.0024
0.0781,0.3784,0.0415,0.0024,0.0024,0.0024,0.0024,0.0024,0.0024,0.0024
0.0049,0.127,0.0024,0.0024,0.0024,0.0024,0.0024,0.0024,0.0024,0.0024
0.0049,0.1001,0.0024,0.0024,0.0024,0.0024,0.0024,0.0024,0.0024,0.0024
0.0024,0.0952,0.0024,0.0024,0.0024,0.0024,0.0024,0.0024,0.0024,0.0024
0.0024,0.0708,0.0024,0.0024,0.0024,0.0049,0.0024,0.0024,0.0024,0.0024
0.0049,0.0757,0.0024,0.0024,0.0024,0.0024,0.0024,0.0024,0.0024,0.0024
0.0513,0.2271,0.0024,0.022,0.0024,0.0024,0.0024,0.0024,0.0024,0.0024
0.1733,0.5518,0.0586,0.0195,0.0024,0.0024,0.0024,0.0171,0.0024,0.0024
0.1489,0.5054,0.0391,0.0073,0.0024,0.0024,0.0024,0.0073,0.0024,0.0024
0.0732,0.4224,0.0146,0.0073,0.0024,0.0024,0.0024,0.0024,0.0024,0.0024
0.0903,0.3638,0.0195,0.0024,0.0024,0.0024,0.0024,0.0024,0.0024,0.0024
0.0635,0.3833,0.0146,0.0024,0.0024,0.0024,0.0024,0.0024,0.0024,0.0024
0.0342,0.2319,0.0024,0.0024,0.0024,0.0024,0.0024,0.0024,0.0024,0.0024
0.0024,0.0586,0.0049,0.0024,0.0024,0.0024,0.0024,0.0024,0.0024,0.0024
0.0146,0.1782,0.0024,0.0024,0.0024,0.0024,0.0024,0.0024,0.0024,0.0024
0.061,0.4077,0.022,0.0024,0.0024,0.0024,0.0024,0.0024,0.0024,0.0024
0.0293,0.3027,0.0024,0.0024,0.0024,0.0024,0.0024,0.0024,0.0024,0.0024
0.0757,0.2417,0.0122,0.0024,0.0024,0.0024,0.0024,0.0024,0.0024,0.0024
0.0879,0.3638,0.0049,0.0049,0.0024,0.0024,0.0024,0.0024,0.0024,0.0024
0.0146,0.1733,0.0073,0.0024,0.0024,0.0024,0.0024,0.0024,0.0024,0.0024
0.0659,0.4517,0.0391,0.0024,0.0024,0.0024,0.0024,0.0024,0.0024,0.0024
0.0586,0.3882,0.0293,0.0024,0.0024,0.0024,0.0024,0.0024,0.0024,0.0024
0.061,0.4785,0.0244,0.0024,0.0024,0.0024,0.0024,0.0024,0.0024,0.0024
0.0879,0.5029,0.0391,0.0024,0.0024,0.0024,0.0024,0.0024,0.0024,0.0024
0.1074,0.5518,0.0366,0.0024,0.0024,0.0024,0.0024,0.0049,0.0024,0.0024
0.1001,0.4663,0.0415,0.0024,0.0024,0.0024,0.0024,0.0024,0.0024,0.0024
0.0928,0.4639,0.0342,0.0024,0.0024,0.0024,0.0024,0.0024,0.0024,0.0024
0.1123,0.5444,0.0488,0.0024,0.0024,0.0024,0.0024,0.0049,0.0024,0.0024
0.1318,0.625,0.0488,0.0024,0.0024,0.0024,0.0024,0.0073,0.0024,0.0024
0.1538,0.8105,0.1172,0.0024,0.0024,0.0024,0.0024,0.0122,0.0024,0.0024
0.1563,0.6592,0.0659,0.0024,0.0024,0.0024,0.0024,0.0049,0.0024,0.0024
0.1538,0.7422,0.0781,0.0024,0.0024,0.0024,0.0024,0.0024,0.0024,0.0024
0.0781,0.5103,0.0488,0.0024,0.0024,0.0024,0.0024,0.0024,0.0024,0.0024
0.1221,0.5664,0.0659,0.0024,0.0024,0.0024,0.0024,0.0024,0.0024,0.0024
0.1025,0.5103,0.0513,0.0024,0.0024,0.0024,0.0024,0.0024,0.0024,0.0024
0.1367,0.625,0.0635,0.0024,0.0024,0.0024,0.0024,0.0024,0.0024,0.0024
0.1074,0.5078,0.0586,0.0024,0.0024,0.0024,0.0024,0.0024,0.0024,0.0024
0.1733,0.7397,0.0757,0.0024,0.0049,0.0024,0.0024,0.0073,0.0024,0.0024
0.1465,0.6616,0.0684,0.0024,0.0024,0.0024,0.0024,0.0024,0.0024,0.0024
0.0806,0.4199,0.0146,0.0024,0.0024,0.0024,0.0024,0.0024,0.0024,0.0024
0.0513,0.3027,0.0073,0.0024,0.0024,0.0024,0.0024,0.0024,0.0024,0.0024
0.0854,0.5615,0.0586,0.0024,0.0024,0.0024,0.0024,0.0024,0.0024,0.0024
0.0928,0.603,0.0757,0.0024,0.0024,0.0024,0.0024,0.0024,0.0024,0.0024
0.1099,0.6616,0.0757,0.0024,0.0024,0.0024,0.0024,0.0073,0.0024,0.0024
0.0757,0.2466,0.0171,0.0024,0.0024,0.0024,0.0024,0.0024,0.0024,0.0024
0.083,0.4004,0.0244,0.0024,0.0024,0.0024,0.0024,0.0024,0.0024,0.0024
0.0903,0.498,0.0293,0.0024,0.0024,0.0024,0.0024,0.0024,0.0024,0.0024
0.0757,0.4565,0.0488,0.0024,0.0024,0.0024,0.0024,0.0049,0.0024,0.0024
0.0879,0.5762,0.0537,0.0024,0.0024,0.0024,0.0024,0.0024,0.0024,0.0024
0.0708,0.5005,0.0464,0.0024,0.0024,0.0024,0.0024,0.0024,0.0024,0.0024
0.0513,0.4175,0.0366,0.0024,0.0024,0.0024,0.0024,0.0024,0.0024,0.0024
0.0439,0.3052,0.0342,0.0024,0.0024,0.0024,0.0024,0.0049,0.0024,0.0024
0.0513,0.3247,0.0293,0.0024,0.0024,0.0024,0.0024,0.0049,0.0024,0.0024
0.2881,0.542,0.0708,0.0024,0.0024,0.0024,0.0024,0.0171,0.0024,0.0024
0.1416,0.1782,0.0098,0.0024,0.0024,0.0024,0.0024,0.0024,0.0024,0.0024
0.1831,0.2246,0.0073,0.0024,0.0049,0.0024,0.0024,0.0024,0.0024,0.0024
0.1489,0.2686,0.0439,0.0024,0.0024,0.0024,0.0024,0.0024,0.0024,0.0024
0.1294,0.2417,0.0415,0.0024,0.0024,0.0024,0.0024,0.0024,0.0024,0.0024
0.1123,0.1611,0.0195,0.0024,0.0024,0.0024,0.0024,0.0024,0.0024,0.0024
0.2124,0.0635,0.0024,0.0024,0.0024,0.0024,0.0024,0.0049,0.0024,0.0024
0.0684,0.293,0.0415,0.0024,0.0024,0.0024,0.0024,0.0024,0.0024,0.0024
0.0635,0.2686,0.0415,0.0024,0.0024,0.0024,0.0024,0.0024,0.0024,0.0024
0.0635,0.2051,0.0122,0.0024,0.0024,0.0024,0.0024,0.0024,0.0024,0.0024
0.0659,0.249,0.0195,0.0024,0.0024,0.0024,0.0024,0.0024,0.0024,0.0024
0.0757,0.3979,0.0122,0.0024,0.0024,0.0024,0.0024,0.0049,0.0024,0.0024
0.0635,0.3418,0.0391,0.0024,0.0024,0.0024,0.0024,0.0049,0.0024,0.0024
0.0073,0.1392,0.0146,0.0024,0.0024,0.0024,0.0024,0.0024,0.0024,0.0024
0.0366,0.166,0.0195,0.0024,0.0024,0.0024,0.0024,0.0024,0.0024,0.0024
0.0073,0.0879,0.0024,0.0024,0.0024,0.0024,0.0024,0.0024,0.0024,0.0024
0.0024,0.0977,0.0024,0.0049,0.0024,0.0024,0.0024,0.0024,0.0024,0.0024
0.0073,0.1245,0.0024,0.0024,0.0024,0.0024,0.0024,0.0024,0.0024,0.0024
0.0024,0.0317,0.0024,0.0024,0.0049,0.0024,0.0024,0.0024,0.0024,0.0024
0.0049,0.1221,0.0073,0.0024,0.0049,0.0024,0.0024,0.0024,0.0024,0.0024
0.0391,0.1782,0.0171,0.0024,0.0024,0.0024,0.0024,0.0024,0.0024,0.0024
0.0024,0.0684,0.0024,0.0024,0.0024,0.0024,0.0024,0.0024,0.0024,0.0024
0.0049,0.0562,0.0049,0.0024,0.0024,0.0024,0.0024,0.0024,0.0024,0.0024
0.0024,0.0464,0.0049,0.0024,0.0024,0.0024,0.0024,0.0024,0.0024,0.0024
0.0366,0.2002,0.0269,0.0024,0.0024,0.0024,0.0024,0.0024,0.0024,0.0024
0.0146,0.1172,0.0024,0.0024,0.0024,0.0024,0.0024,0.0024,0.0024,0.0024
0.0513,0.2368,0.0391,0.0024,0.0024,0.0024,0.0049,0.0049,0.0024,0.0024
0.0488,0.21,0.0342,0.0024,0.0024,0.0024,0.0024,0.0024,0.0024,0.0024
0.022,0.1392,0.0024,0.0024,0.0024,0.0024,0.0024,0.0024,0.0024,0.0024
0.0244,0.1489,0.0195,0.0024,0.0024,0.0024,0.0024,0.0073,0.0024,0.0049
0.0488,0.1953,0.0073,0.0024,0.0024,0.0024,0.0024,0.0024,0.0024,0.0024
0.0684,0.2417,0.0073,0.0024,0.0024,0.0024,0.0049,0.0024,0.0024,0.0024
0.0732,0.2954,0.0391,0.0024,0.0024,0.0024,0.0024,0.0024,0.0024,0.0024
0.0415,0.2246,0.0122,0.0024,0.0024,0.0024,0.0024,0.0024,0.0024,0.0024
0.0293,0.1929,0.0073,0.0024,0.0024,0.0024,0.0024,0.0024,0.0024,0.0024
0.0684,0.2686,0.0073,0.0024,0.0024,0.0024,0.0024,0.0024,0.0024,0.0024
0.0244,0.1758,0.0195,0.0024,0.0024,0.0024,0.0024,0.0024,0.0024,0.0024
0.0439,0.1636,0.0171,0.0024,0.0024,0.0024,0.0024,0.0024,0.0024,0.0024
0.0342,0.1489,0.0024,0.0024,0.0024,0.0024,0.0024,0.0024,0.0024,0.0024
0.0488,0.0757,0.0024,0.0024,0.0024,0.0024,0.0024,0.0049,0.0024,0.0024
0.0293,0.1855,0.0122,0.0024,0.0024,0.0024,0.0024,0.0024,0.0024,0.0024
0.0098,0.0195,0.0024,0.0049,0.0024,0.0024,0.0024,0.0024,0.0024,0.0024
0.0024,0.0952,0.0024,0.0049,0.0024,0.0024,0.0024,0.0024,0.0024,0.0024
0.0293,0.1245,0.0049,0.0146,0.0024,0.0024,0.0024,0.0024,0.0024,0.0024
0.0073,0.0684,0.0049,0.0049,0.0024,0.0024,0.0024,0.0024,0.0024,0.0024
0.0171,0.0854,0.0024,0.0122,0.0024,0.0024,0.0024,0.0024,0.0024,0.0024
0.0317,0.1245,0.0098,0.0024,0.0024,0.0024,0.0024,0.0024,0.0024,0.0024
0.0122,0.0317,0.0024,0.0024,0.0024,0.0024,0.0024,0.0024,0.0024,0.0024
0.0024,0.0049,0.0024,0.0024,0.0024,0.0024,0.0024,0.0024,0.0098,0.0024
0.0024,0.0024,0.0366,0.0024,0.0024,0.0024,0.0024,0.0024,0.0073,0.0024
0.1636,0.1611,0.0464,0.0024,0.0024,0.0024,0.0024,0.0098,0.0024,0.0024
0.0635,0.1538,0.0024,0.0024,0.0024,0.0024,0.0024,0.0049,0.0024,0.0024
0.0977,0.2051,0.0073,0.0049,0.0024,0.0024,0.0024,0.0024,0.0024,0.0024
0.1196,0.1709,0.0171,0.0024,0.0024,0.0024,0.0024,0.0073,0.0024,0.0024
0.0879,0.2246,0.0049,0.0024,0.0024,0.0024,0.0024,0.0024,0.0024,0.0024
0.0903,0.2856,0.0098,0.0024,0.0024,0.0024,0.0024,0.0024,0.0024,0.0024
0.0903,0.2759,0.0293,0.0024,0.0024,0.0024,0.0024,0.0024,0.0024,0.0024
0.0708,0.2441,0.0195,0.0024,0.0024,0.0024,0.0024,0.0024,0.0049,0.0024
0.0684,0.2612,0.0366,0.0024,0.0024,0.0024,0.0024,0.0024,0.0024,0.0024
0.0854,0.3589,0.0415,0.0024,0.0024,0.0024,0.0024,0.0024,0.0024,0.0024
0.0146,0.1465,0.0024,0.0024,0.0024,0.0024,0.0024,0.0024,0.0024,0.0024
0.0171,0.1074,0.0024,0.0049,0.0024,0.0024,0.0024,0.0024,0.0024,0.0024
0.0488,0.2295,0.0073,0.0024,0.0024,0.0024,0.0024,0.0024,0.0024,0.0024
0.0586,0.2295,0.0073,0.0024,0.0024,0.0024,0.0024,0.0024,0.0024,0.0024
0.0024,0.0806,0.0073,0.0024,0.0024,0.0024,0.0024,0.0024,0.0024,0.0024
0.0537,0.2686,0.0122,0.0024,0.0024,0.0024,0.0024,0.0024,0.0024,0.0024
0.0122,0.0928,0.0024,0.0024,0.0024,0.0024,0.0024,0.0024,0.0024,0.0024
0.0269,0.1416,0.0024,0.0024,0.0024,0.0024,0.0024,0.0024,0.0024,0.0024
0.0708,0.2368,0.0195,0.0024,0.0024,0.0024,0.0024,0.0049,0.0024,0.0024
0.0952,0.2734,0.0244,0.0024,0.0024,0.0024,0.0024,0.0024,0.0024,0.0024
0.0952,0.2783,0.0171,0.0024,0.0024,0.0024,0.0024,0.0049,0.0024,0.0024
0.105,0.4175,0.0415,0.0024,0.0024,0.0024,0.0024,0.0024,0.0024,0.0024
0.1172,0.415,0.0488,0.0024,0.0024,0.0024,0.0024,0.0049,0.0024,0.0024
0.1074,0.4199,0.0513,0.0024,0.0024,0.0024,0.0024,0.0024,0.0024,0.0024
0.1099,0.4443,0.0488,0.0024,0.0024,0.0024,0.0024,0.0024,0.0024,0.0024
0.1099,0.4639,0.0488,0.0024,0.0024,0.0024,0.0024,0.0024,0.0024,0.0024
0.1782,0.5664,0.0781,0.0024,0.0024,0.0024,0.0049,0.0146,0.0024,0.0024
0.0781,0.3247,0.0342,0.0024,0.0024,0.0024,0.0024,0.0024,0.0024,0.0024
0.1245,0.4199,0.0317,0.0024,0.0024,0.0024,0.0024,0.0049,0.0024,0.0024
0.1392,0.4736,0.061,0.0024,0.0024,0.0024,0.0024,0.0073,0.0024,0.0024
0.1855,0.6079,0.083,0.0024,0.0024,0.0024,0.0024,0.0195,0.0024,0.0024
0.2832,0.9863,0.0952,0.0049,0.0464,0.0024,0.0024,0.0317,0.0024,0.0024
0.1538,0.603,0.0513,0.0024,0.0024,0.0024,0.0024,0.0122,0.0024,0.0024
0.1465,0.5151,0.0464,0.0024,0.0073,0.0024,0.0024,0.0122,0.0024,0.0024
0.1636,0.6812,0.0562,0.0024,0.0122,0.0024,0.0024,0.0098,0.0024,0.0024
0.1514,0.5469,0.0684,0.0024,0.0024,0.0024,0.0024,0.0146,0.0024,0.0024
0.1294,0.4663,0.0415,0.0024,0.0024,0.0024,0.0024,0.0049,0.0024,0.0024
0.1074,0.4443,0.0244,0.0024,0.0024,0.0024,0.0024,0.0024,0.0024,0.0024
0.2344,0.8618,0.0952,0.0024,0.0024,0.0024,0.0024,0.0195,0.0024,0.0024
0.1831,0.6421,0.0684,0.0024,0.0024,0.0024,0.0024,0.0073,0.0024,0.0024
0.2686,0.8447,0.0977,0.0024,0.0195,0.0024,0.0024,0.0171,0.0024,0.0024
0.2222,0.7251,0.0537,0.0049,0.0024,0.0024,0.0024,0.0171,0.0024,0.0024
0.2222,0.7422,0.0562,0.0024,0.0024,0.0024,0.0024,0.0146,0.0024,0.0024
0.2417,0.7397,0.0903,0.0024,0.0024,0.0024,0.0024,0.0171,0.0024,0.0024
0.3003,0.8374,0.083,0.0024,0.0391,0.0024,0.0024,0.0195,0.0024,0.0024
0.2246,0.8472,0.061,0.0024,0.0049,0.0024,0.0024,0.0171,0.0024,0.0024
0.1709,0.6909,0.0439,0.0024,0.0024,0.0024,0.0024,0.0024,0.0024,0.0049
0.0757,0.3467,0.0122,0.0024,0.0024,0.0024,0.0024,0.0024,0.0024,0.0024
0.1831,0.6812,0.0464,0.0024,0.0024,0.0024,0.0024,0.0146,0.0024,0.0024
0.1807,0.5347,0.0293,0.0024,0.0024,0.0024,0.0024,0.0049,0.0024,0.0024
0.2124,0.603,0.0513,0.0024,0.0098,0.0024,0.0024,0.0098,0.0024,0.0024
0.1855,0.7275,0.0635,0.0024,0.0024,0.0024,0.0024,0.0049,0.0024,0.0024
0.2026,0.6055,0.0635,0.0024,0.0024,0.0024,0.0024,0.0122,0.0024,0.0024
0.1025,0.3711,0.0244,0.0024,0.0244,0.0024,0.0024,0.0024,0.0024,0.0024
0.0464,0.21,0.0024,0.0024,0.0342,0.0024,0.0024,0.0024,0.0024,0.0024
0.0586,0.2319,0.022,0.0024,0.0049,0.0024,0.0024,0.0049,0.0024,0.0024
0.0781,0.2368,0.0244,0.0024,0.0024,0.0024,0.0024,0.0024,0.0024,0.0024
0.293,0.2075,0.0464,0.0024,0.0024,0.0024,0.0024,0.0098,0.0024,0.0024
0.2441,0.1709,0.0366,0.0024,0.0024,0.0024,0.0024,0.0049,0.0024,0.0024
0.2173,0.1538,0.0586,0.0024,0.0024,0.0024,0.0024,0.0049,0.0024,0.0024
0.0269,0.1367,0.0024,0.0024,0.0024,0.0024,0.0024,0.0024,0.0024,0.0024
0.0049,0.0244,0.0024,0.0024,0.0024,0.0024,0.0024,0.0024,0.0024,0.0024
0.0146,0.0879,0.0024,0.0024,0.0024,0.0024,0.0024,0.0024,0.0024,0.0024
0.0073,0.1001,0.0024,0.0024,0.0024,0.0024,0.0024,0.0024,0.0024,0.0024
0.0073,0.061,0.0024,0.0024,0.0049,0.0024,0.0024,0.0024,0.0024,0.0024
0.061,0.0024,0.0049,0.0024,0.0024,0.0024,0.0024,0.0024,0.0024,0.0024
0.0171,0.0024,0.0024,0.0024,0.0024,0.0024,0.0024,0.0049,0.0024,0.0024
0.4419,0.0122,0.0073,0.0171,0.0024,0.0024,0.0024,0.0293,0.1367,0.0024
0.5859,0.3833,0.2539,0.3564,0.0024,0.0024,0.0024,0.2368,0.9937,0.2173
0.769,0.4102,0.3345,0.2539,0.0024,0.0024,0.0024,0.2441,1.0693,0.1904
0.5737,0.4663,0.2637,0.2246,0.0024,0.0024,0.0024,0.2295,1.0229,0.2783
0.2563,0.3003,0.1709,0.1465,0.0024,0.0024,0.0024,0.0928,0.4224,0.0708
0.4297,0.5322,0.2026,0.144,0.0049,0.0024,0.0024,0.1343,0.8325,0.1416
0.5591,0.4639,0.2808,0.1465,0.0024,0.0024,0.0024,0.1929,0.8398,0.1636
0.5493,0.3687,0.2173,0.1245,0.0024,0.0024,0.0024,0.1172,0.73,0.0879
0.5322,0.4395,0.1831,0.1172,0.0024,0.0024,0.0024,0.1733,0.7227,0.1025
0.5273,0.542,0.1929,0.1514,0.0024,0.0024,0.0024,0.1709,0.8252,0.1465
0.5542,0.4907,0.1904,0.1514,0.0024,0.0024,0.0024,0.1782,0.835,0.1636
0.5591,0.3491,0.2026,0.1196,0.0024,0.0024,0.0024,0.1709,0.9912,0.1294
0.4175,0.2466,0.1807,0.1099,0.0024,0.0024,0.0024,0.1563,0.5981,0.1392
0.4248,0.3247,0.1685,0.0854,0.0024,0.0024,0.0098,0.2026,0.5713,0.2002
0.2783,0.1074,0.0854,0.0244,0.0049,0.0024,0.0024,0.1929,0.249,0.2344
0.3345,0.2124,0.0244,0.0024,0.0024,0.0024,0.0024,0.1025,0.0122,0.0562
0.3101,0.2026,0.0391,0.0024,0.0024,0.0024,0.0024,0.0366,0.0024,0.0513
0.1636,0.1147,0.0024,0.0049,0.0024,0.0024,0.0024,0.1001,0.0024,0.1953
0.3979,0.1123,0.0049,0.0049,0.0024,0.0024,0.0073,0.2271,0.0024,0.3149
0.2661,0.1685,0.0049,0.0024,0.0024,0.0024,0.0122,0.2026,0.0024,0.3052
0.2148,0.0659,0.0024,0.0024,0.0024,0.0024,0.0024,0.1147,0.0024,0.1025
0.1001,0.1392,0.0024,0.0024,0.0024,0.0024,0.0024,0.0513,0.0024,0.0586
0.1904,0.1929,0.0098,0.0024,0.0024,0.0024,0.0024,0.1123,0.0024,0.1074
0.1831,0.1904,0.0024,0.0024,0.0024,0.0024,0.0024,0.0781,0.0024,0.0928
0.1636,0.1318,0.0024,0.0024,0.0024,0.0024,0.0024,0.0366,0.0024,0.0439
0.1538,0.1172,0.0024,0.0024,0.0024,0.0024,0.0024,0.0586,0.0024,0.0586
0.1538,0.1855,0.0024,0.0024,0.0024,0.0024,0.0024,0.0391,0.0024,0.061
0.1416,0.1636,0.0024,0.0024,0.0024,0.0024,0.0024,0.0391,0.0024,0.0732
0.2661,0.2856,0.0098,0.0024,0.0024,0.0024,0.0024,0.0781,0.0024,0.1001
0.1782,0.188,0.0024,0.0024,0.0024,0.0024,0.0024,0.0488,0.0024,0.0537
0.1318,0.2002,0.0049,0.0024,0.0024,0.0024,0.0024,0.0317,0.0024,0.0293
0.1123,0.1831,0.0024,0.0024,0.0024,0.0024,0.0024,0.0269,0.0024,0.0195
0.1904,0.2051,0.0024,0.0024,0.0049,0.0024,0.0024,0.0195,0.0024,0.0098
0.376,0.1807,0.0146,0.0024,0.0024,0.0024,0.0024,0.0635,0.0024,0.0366
0.2979,0.2734,0.0146,0.0024,0.0024,0.0024,0.0024,0.0586,0.0024,0.0317
0.2832,0.2637,0.0342,0.0024,0.0024,0.0024,0.0024,0.083,0.0439,0.0244
0.542,0.2466,0.166,0.1221,0.0024,0.0024,0.0024,0.1538,0.6348,0.0977
0.3198,0.2661,0.1416,0.0879,0.0024,0.0024,0.0024,0.0537,0.2734,0.0317
0.3809,0.2783,0.1611,0.1172,0.0024,0.0024,0.0024,0.0684,0.3101,0.0366
0.2441,0.2002,0.1001,0.061,0.0024,0.0024,0.0024,0.0244,0.2075,0.0024
0.3149,0.2197,0.0757,0.0439,0.0024,0.0024,0.0024,0.0244,0.1855,0.0024
0.2148,0.1465,0.0806,0.0366,0.0024,0.0024,0.0024,0.0073,0.188,0.0024
0.1343,0.1367,0.0269,0.0024,0.0049,0.0024,0.0024,0.0024,0.0146,0.0024
0.0732,0.0562,0.0024,0.0024,0.0024,0.0024,0.0024,0.0024,0.0024,0.0049
0.1294,0.1025,0.0049,0.0024,0.0024,0.0024,0.0024,0.0024,0.0708,0.0122
0.5225,0.1538,0.1074,0.0024,0.0024,0.0024,0.0024,0.0757,0.166,0.0122
0.4785,0.1074,0.0659,0.0024,0.0024,0.0024,0.0024,0.0684,0.1245,0.0024
0.3296,0.0659,0.022,0.0024,0.0024,0.0024,0.0024,0.0342,0.0732,0.0024
0.2515,0.1123,0.0562,0.0073,0.0024,0.0024,0.0024,0.0146,0.0977,0.0024
0.1953,0.0854,0.0464,0.0024,0.0024,0.0024,0.0024,0.0024,0.1367,0.0024
0.2197,0.0537,0.0073,0.0024,0.0024,0.0024,0.0024,0.0049,0.0684,0.0024
0.1318,0.0024,0.0317,0.0024,0.0024,0.0024,0.0024,0.0024,0.0879,0.0024
0.293,0.3076,0.0537,0.0073,0.0024,0.0024,0.0024,0.0195,0.1001,0.0024
0.2881,0.4126,0.0806,0.0024,0.0024,0.0024,0.0024,0.0098,0.1709,0.0024
0.1831,0.2832,0.0244,0.0024,0.0024,0.0024,0.0024,0.0024,0.0806,0.0024
0.1318,0.2051,0.0244,0.0024,0.0024,0.0024,0.0024,0.0146,0.0366,0.0024
0.0903,0.1807,0.0098,0.0024,0.0024,0.0024,0.0024,0.0024,0.0024,0.0024
0.0903,0.0854,0.0073,0.0024,0.0024,0.0024,0.0024,0.0024,0.0122,0.0024
0.0854,0.1099,0.0146,0.0073,0.0024,0.0024,0.0024,0.0024,0.0244,0.0024
0.061,0.2466,0.0171,0.0024,0.0024,0.0024,0.0024,0.0024,0.0024,0.0024
0.0879,0.2051,0.0049,0.0024,0.0049,0.0024,0.0024,0.0049,0.0098,0.0024
0.1001,0.1733,0.0024,0.0024,0.0024,0.0024,0.0024,0.0024,0.0073,0.0024
0.0024,0.0049,0.0024,0.0024,0.0024,0.0024,0.0024,0.0024,0.0049,0.0024
0.0122,0.0098,0.0049,0.0024,0.0024,0.0024,0.0024,0.0024,0.0024,0.0024
0.0244,0.0024,0.0049,0.0024,0.0024,0.0024,0.0024,0.0024,0.0024,0.0024
0.0684,0.0049,0.0024,0.0024,0.0024,0.0024,0.0024,0.0024,0.0024,0.0024
0.0635,0.0049,0.0024,0.0024,0.0024,0.0024,0.0024,0.0024,0.0024,0.0024
0.1831,0.1074,0.0049,0.0171,0.0024,0.0024,0.0024,0.0024,0.0586,0.0024
0.4321,0.0708,0.0024,0.0073,0.0024,0.0024,0.0024,0.0342,0.0342,0.0464
0.5518,0.1904,0.0854,0.0342,0.0024,0.0024,0.0024,0.0806,0.1904,0.0879
0.2295,0.061,0.0024,0.0024,0.0024,0.0024,0.0024,0.061,0.0391,0.0342
0.3979,0.0537,0.0024,0.0024,0.0024,0.0024,0.0024,0.0537,0.0024,0.0244
0.4077,0.0342,0.0024,0.0024,0.0024,0.0024,0.0024,0.0464,0.0024,0.0195
0.3638,0.0171,0.0024,0.0024,0.0024,0.0024,0.0024,0.0513,0.0024,0.0391
0.1294,0.1538,0.0659,0.0464,0.0024,0.0024,0.0024,0.0122,0.0439,0.0024
0.1465,0.3101,0.1001,0.0366,0.0024,0.0024,0.0024,0.0098,0.1099,0.0024
0.1538,0.3467,0.0757,0.0293,0.0024,0.0024,0.0024,0.0073,0.0854,0.0024
0.1538,0.3979,0.0659,0.0024,0.0049,0.0024,0.0024,0.0098,0.0781,0.0024
0.1367,0.3662,0.061,0.0024,0.0024,0.0024,0.0024,0.0073,0.0879,0.0024
0.0854,0.2222,0.0464,0.0024,0.0024,0.0024,0.0024,0.0024,0.022,0.0024
0.0903,0.2026,0.0854,0.0488,0.0024,0.0024,0.0024,0.0024,0.1978,0.0024
0.0879,0.1929,0.0757,0.022,0.0024,0.0024,0.0024,0.0024,0.1367,0.0024
0.1831,0.2466,0.0537,0.144,0.0049,0.0024,0.0024,0.0098,0.2173,0.0024
0.1025,0.2734,0.0903,0.1147,0.0024,0.0024,0.0024,0.0073,0.1538,0.0024
0.1025,0.1831,0.0903,0.0659,0.0024,0.0024,0.0024,0.0024,0.1465,0.0024
0.1172,0.1855,0.083,0.0806,0.0024,0.0024,0.0024,0.0049,0.1538,0.0024
0.0928,0.1416,0.0684,0.1099,0.0024,0.0024,0.0024,0.0024,0.1318,0.0024
0.0952,0.1367,0.0122,0.0684,0.0024,0.0024,0.0024,0.0024,0.0781,0.0024
0.0781,0.2295,0.0537,0.022,0.0024,0.0024,0.0024,0.0024,0.0757,0.0024
0.0806,0.2539,0.0659,0.0317,0.0024,0.0024,0.0024,0.0049,0.0732,0.0024
0.1001,0.271,0.0415,0.022,0.0049,0.0024,0.0024,0.0024,0.0342,0.0024
0.0854,0.2588,0.0366,0.0244,0.0024,0.0024,0.0024,0.0024,0.0171,0.0024
0.0635,0.2148,0.0269,0.0293,0.0024,0.0024,0.0024,0.0024,0.0049,0.0024
0.1025,0.2612,0.022,0.0269,0.0024,0.0024,0.0024,0.0024,0.0122,0.0024
0.105,0.2417,0.022,0.0146,0.0024,0.0024,0.0024,0.0049,0.0146,0.0024
0.0342,0.1538,0.0684,0.022,0.0024,0.0024,0.0024,0.0024,0.0122,0.0024
0.0562,0.2783,0.0708,0.0122,0.0024,0.0024,0.0024,0.0024,0.0073,0.0024
0.083,0.2271,0.0464,0.0024,0.0024,0.0024,0.0024,0.0024,0.0024,0.0024
0.0513,0.1489,0.0659,0.0439,0.0024,0.0024,0.0024,0.0024,0.0244,0.0024
0.0757,0.3174,0.0513,0.022,0.0024,0.0024,0.0024,0.0073,0.0049,0.0024
0.0928,0.3442,0.0854,0.0244,0.0024,0.0024,0.0024,0.0073,0.0171,0.0049
0.105,0.332,0.105,0.0171,0.0024,0.0024,0.0024,0.0049,0.022,0.0024
0.061,0.1709,0.0806,0.0317,0.0024,0.0024,0.0024,0.0024,0.0952,0.0024
0.0293,0.1099,0.0513,0.0195,0.0024,0.0024,0.0024,0.0024,0.0024,0.0024
0.0586,0.144,0.0586,0.0049,0.0024,0.0024,0.0024,0.0024,0.0366,0.0024
0.0635,0.1343,0.0488,0.0024,0.0024,0.0024,0.0024,0.0024,0.0244,0.0024
0.0781,0.1978,0.0415,0.0024,0.0024,0.0024,0.0024,0.0024,0.0024,0.0024
0.061,0.1538,0.0293,0.0024,0.0024,0.0024,0.0024,0.0024,0.0073,0.0024
0.0366,0.1392,0.0635,0.0024,0.0024,0.0024,0.0024,0.0024,0.0073,0.0024
0.0244,0.105,0.0464,0.0024,0.0049,0.0024,0.0024,0.0024,0.0293,0.0024
0.0586,0.2271,0.0806,0.0024,0.0024,0.0024,0.0024,0.0049,0.0146,0.0024
0.0708,0.2759,0.0806,0.0073,0.0024,0.0024,0.0024,0.0024,0.1465,0.0024
0.0537,0.2148,0.0488,0.0024,0.0024,0.0024,0.0024,0.0024,0.1025,0.0024
0.0513,0.1929,0.0391,0.0024,0.0024,0.0024,0.0024,0.0024,0.0586,0.0024
0.0977,0.3369,0.0586,0.0098,0.0024,0.0024,0.0024,0.0024,0.0464,0.0024
0.0879,0.2441,0.0537,0.0024,0.0024,0.0024,0.0024,0.0024,0.0366,0.0024
0.0684,0.2246,0.0684,0.0244,0.0024,0.0024,0.0024,0.0024,0.0586,0.0024
0.0537,0.1831,0.0488,0.0195,0.0024,0.0024,0.0024,0.0024,0.0415,0.0024
0.0269,0.1123,0.022,0.0073,0.0024,0.0024,0.0024,0.0024,0.0146,0.0024
0.0732,0.2734,0.083,0.0488,0.0024,0.0024,0.0024,0.0024,0.1587,0.0024
0.0732,0.1953,0.0342,0.0024,0.0024,0.0024,0.0024,0.0024,0.0146,0.0024
0.0732,0.1904,0.0537,0.0024,0.0024,0.0024,0.0024,0.0024,0.0342,0.0024
0.1416,0.1904,0.0684,0.022,0.0024,0.0024,0.0024,0.0024,0.0513,0.0024
0.105,0.1416,0.0195,0.0024,0.0024,0.0024,0.0024,0.0024,0.0635,0.0024
0.1782,0.1392,0.0391,0.0488,0.0024,0.0024,0.0024,0.0171,0.2539,0.0024
0.1099,0.0464,0.0586,0.0049,0.0024,0.0024,0.0024,0.0024,0.1245,0.0024
0.166,0.1392,0.0684,0.0195,0.0024,0.0024,0.0049,0.0024,0.1245,0.0024
0.1587,0.1196,0.0537,0.0122,0.0024,0.0024,0.0024,0.0024,0.1025,0.0024
0.1416,0.0513,0.0537,0.0171,0.0024,0.0024,0.0024,0.0024,0.0439,0.0024
0.2026,0.3882,0.2271,0.1978,0.0024,0.0024,0.0024,0.0684,0.6519,0.061
0.2271,0.2881,0.2588,0.3003,0.0024,0.0024,0.0024,0.1367,0.874,0.1563
0.2222,0.3931,0.1514,0.2661,0.0049,0.0024,0.0024,0.1758,0.4956,0.1953
0.2051,0.6104,0.1514,0.1855,0.0024,0.0024,0.0024,0.0635,0.4272,0.0146
0.1074,0.3882,0.1489,0.1636,0.0146,0.0024,0.0024,0.022,0.3296,0.0024
0.0952,0.3442,0.1221,0.1611,0.0073,0.0024,0.0024,0.0098,0.249,0.0024
0.1001,0.2295,0.0952,0.188,0.0024,0.0024,0.0024,0.0073,0.3027,0.0269
0.1611,0.4346,0.1587,0.166,0.0024,0.0024,0.0024,0.0146,0.2393,0.0317
0.1538,0.415,0.1807,0.1831,0.0024,0.0024,0.0024,0.0146,0.3223,0.0122
0.188,0.5542,0.1318,0.1367,0.0024,0.0024,0.0024,0.0269,0.2759,0.0024
0.1294,0.3369,0.1782,0.1782,0.0024,0.0024,0.0024,0.0317,0.2661,0.0293
0.2173,0.6592,0.1465,0.0977,0.0049,0.0024,0.0024,0.0195,0.2881,0.0024
0.1514,0.5322,0.1074,0.0806,0.0024,0.0024,0.0024,0.0098,0.2051,0.0024
0.0928,0.4248,0.0977,0.1489,0.0024,0.0024,0.0024,0.0024,0.2905,0.0122
0.1074,0.4639,0.0952,0.1294,0.0024,0.0024,0.0024,0.0049,0.249,0.0098
0.1367,0.5005,0.1709,0.1416,0.0049,0.0024,0.0024,0.0049,0.2539,0.0024
0.1416,0.5322,0.1367,0.1001,0.0024,0.0024,0.0024,0.0024,0.3223,0.0024
0.1172,0.4907,0.1245,0.105,0.0024,0.0024,0.0024,0.0024,0.1685,0.0024
0.1367,0.5249,0.1953,0.144,0.0024,0.0024,0.0024,0.0073,0.2368,0.0024
0.1074,0.376,0.1099,0.1465,0.0024,0.0024,0.0024,0.0024,0.2563,0.0024
0.1733,0.6494,0.1221,0.0269,0.0024,0.0024,0.0024,0.0098,0.0146,0.0024
0.1489,0.6348,0.1367,0.0439,0.0024,0.0024,0.0024,0.0073,0.0562,0.0024
0.1416,0.3833,0.1221,0.0732,0.0024,0.0024,0.0024,0.0073,0.0806,0.0024
0.1782,0.4712,0.0952,0.0488,0.0024,0.0024,0.0024,0.0146,0.0293,0.0024
0.0879,0.2661,0.1172,0.0659,0.0024,0.0024,0.0024,0.0024,0.1294,0.0024
0.0488,0.1489,0.1318,0.0732,0.0024,0.0024,0.0024,0.0049,0.1001,0.0024
0.0659,0.2637,0.0586,0.0464,0.0024,0.0024,0.0024,0.0024,0.1514,0.0024
0.061,0.2393,0.0488,0.0439,0.0024,0.0024,0.0024,0.0024,0.1343,0.0024
0.1147,0.4785,0.1831,0.0977,0.0024,0.0024,0.0024,0.0073,0.1221,0.0024
0.0684,0.2954,0.1221,0.0537,0.0024,0.0024,0.0024,0.0024,0.3955,0.0024
0.1172,0.2441,0.1294,0.0732,0.0024,0.0024,0.0024,0.0024,0.2637,0.0024
0.0537,0.0952,0.105,0.0317,0.0024,0.0024,0.0024,0.0024,0.1733,0.0024
0.0488,0.1538,0.105,0.0317,0.0024,0.0024,0.0024,0.0024,0.1392,0.0024
0.0513,0.1489,0.0806,0.0073,0.0024,0.0024,0.0024,0.0024,0.1147,0.0024
0.0781,0.21,0.2051,0.0977,0.0024,0.0024,0.0024,0.0024,0.249,0.0024
0.1465,0.2515,0.1001,0.0806,0.0024,0.0024,0.0024,0.0024,0.2393,0.0024
0.2246,0.1831,0.0635,0.2295,0.0024,0.0024,0.0024,0.0684,0.188,0.0659
0.2344,0.1709,0.0317,0.1489,0.0073,0.0024,0.0024,0.0879,0.1636,0.0879
0.2148,0.1416,0.0977,0.1343,0.0024,0.0024,0.0024,0.0952,0.2515,0.0781
0.1758,0.3271,0.0732,0.0366,0.0049,0.0024,0.0024,0.0342,0.0806,0.0244
0.2051,0.3516,0.0488,0.0024,0.0024,0.0024,0.0024,0.0562,0.0366,0.0586
0.1489,0.1538,0.0073,0.0342,0.0024,0.0024,0.0024,0.0244,0.0317,0.0513
0.1514,0.2734,0.0903,0.0049,0.0024,0.0024,0.0024,0.0024,0.0073,0.0024
0.1392,0.2563,0.0659,0.0073,0.0024,0.0024,0.0024,0.0049,0.0024,0.0024
0.1074,0.2124,0.0244,0.0293,0.0024,0.0024,0.0024,0.0024,0.0073,0.0024
0.1099,0.2393,0.0269,0.022,0.0024,0.0024,0.0024,0.0024,0.0024,0.0024
0.0928,0.21,0.0586,0.0073,0.0024,0.0024,0.0024,0.0024,0.0024,0.0024
0.0781,0.1611,0.0439,0.0024,0.0024,0.0024,0.0024,0.0024,0.0024,0.0024
0.0903,0.3101,0.0342,0.0024,0.0024,0.0024,0.0024,0.0024,0.0024,0.0024
0.1343,0.2832,0.0879,0.0049,0.0024,0.0024,0.0024,0.0024,0.0391,0.0024
0.1318,0.2148,0.083,0.0342,0.0024,0.0024,0.0024,0.0049,0.0562,0.0024
0.1172,0.2222,0.0171,0.022,0.0024,0.0024,0.0024,0.0024,0.0146,0.0024
0.0684,0.2319,0.0635,0.0098,0.0024,0.0024,0.0122,0.0024,0.0269,0.0024
0.0903,0.1538,0.0659,0.0391,0.0024,0.0024,0.0244,0.0024,0.0098,0.0024
0.0635,0.1807,0.105,0.0269,0.0024,0.0024,0.0024,0.0024,0.0269,0.0024
0.1172,0.1465,0.0244,0.0439,0.0024,0.0024,0.0024,0.0024,0.0659,0.0024
0.1025,0.1392,0.0317,0.0366,0.0024,0.0024,0.0024,0.0024,0.1123,0.0024
0.0854,0.1538,0.0586,0.0269,0.0024,0.0024,0.0024,0.0024,0.1221,0.0024
0.0928,0.1318,0.0659,0.0171,0.0024,0.0024,0.0024,0.0024,0.2075,0.0024
0.1147,0.3296,0.0806,0.0024,0.0024,0.0024,0.0024,0.0049,0.1733,0.0024
0.1025,0.2246,0.0879,0.0098,0.0024,0.0024,0.0024,0.0024,0.1074,0.0024
0.1099,0.2466,0.0903,0.0024,0.0024,0.0024,0.0024,0.0024,0.0659,0.0024
0.1367,0.3027,0.061,0.0024,0.0024,0.0024,0.0024,0.0024,0.0757,0.0024
0.1294,0.2783,0.0488,0.0195,0.0024,0.0024,0.0024,0.0024,0.1172,0.0024
0.1025,0.2368,0.0757,0.022,0.0024,0.0024,0.0024,0.0024,0.1074,0.0024
0.0708,0.1172,0.0488,0.0049,0.0024,0.0024,0.0024,0.0024,0.0781,0.0024
0.1123,0.061,0.0024,0.0024,0.0024,0.0024,0.0024,0.0024,0.0195,0.0024
0.0952,0.1294,0.0635,0.0146,0.0049,0.0024,0.0024,0.0024,0.127,0.0024
0.1196,0.2319,0.0708,0.0098,0.0024,0.0024,0.0024,0.0024,0.1733,0.0024
0.0684,0.1587,0.0122,0.0024,0.0024,0.0024,0.0024,0.0024,0.0854,0.0024
0.1147,0.1538,0.0781,0.022,0.0024,0.0024,0.0024,0.0024,0.0488,0.0024
0.0928,0.2002,0.061,0.0342,0.0024,0.0024,0.0024,0.0024,0.127,0.0024
0.1489,0.1587,0.0415,0.0537,0.0024,0.0024,0.0024,0.0024,0.1196,0.0024
0.1172,0.083,0.0903,0.0342,0.0024,0.0024,0.0024,0.0024,0.1636,0.0024
0.1465,0.144,0.0586,0.0317,0.0024,0.0024,0.0024,0.0024,0.144,0.0024
0.1147,0.1416,0.0977,0.0488,0.0024,0.0024,0.0024,0.0024,0.1416,0.0024
0.1953,0.0122,0.0024,0.0806,0.0024,0.0024,0.0024,0.0024,0.0171,0.0024
0.1123,0.0073,0.0024,0.0708,0.0049,0.0024,0.0024,0.0024,0.0317,0.0024
0.0391,0.0024,0.0024,0.0415,0.0049,0.0024,0.0024,0.0024,0.0024,0.0024
0.022,0.0024,0.0049,0.0513,0.0024,0.0024,0.0024,0.0024,0.0195,0.0024
0.0342,0.0146,0.0024,0.0098,0.0024,0.0024,0.0024,0.0024,0.0024,0.0024
0.0366,0.0024,0.0024,0.0122,0.0024,0.0024,0.0024,0.0024,0.0098,0.0024
0.0317,0.0024,0.0049,0.0122,0.0024,0.0024,0.0024,0.0024,0.0024,0.0024
0.0391,0.0024,0.0024,0.0171,0.0024,0.0024,0.0024,0.0024,0.1025,0.0024
0.0586,0.0024,0.0049,0.0269,0.0024,0.0024,0.0024,0.0024,0.0415,0.0024
0.0415,0.0049,0.0024,0.0098,0.0024,0.0024,0.0024,0.0024,0.0146,0.0024
0.0513,0.0098,0.0024,0.022,0.0024,0.0024,0.0024,0.0024,0.0122,0.0024
0.0317,0.0024,0.0024,0.0244,0.0024,0.0024,0.0024,0.0024,0.0562,0.0024
0.022,0.0024,0.0024,0.0293,0.0024,0.0024,0.0024,0.0024,0.083,0.0024
0.0415,0.0049,0.0317,0.0269,0.0024,0.0024,0.0024,0.0024,0.0684,0.0024
0.0146,0.0024,0.0024,0.0146,0.0024,0.0024,0.0024,0.0024,0.0537,0.0024
0.0024,0.0024,0.0171,0.0122,0.0024,0.0024,0.0024,0.0024,0.0024,0.0024
0.0098,0.0049,0.0024,0.0146,0.0024,0.0024,0.0024,0.0024,0.061,0.0024
0.0098,0.0024,0.0024,0.0171,0.0024,0.0024,0.0024,0.0024,0.0415,0.0024
0.0171,0.0024,0.0024,0.0146,0.0024,0.0024,0.0024,0.0024,0.0537,0.0024
0.0024,0.0024,0.0195,0.0146,0.0024,0.0024,0.0024,0.0024,0.0098,0.0024
0.0073,0.0024,0.0024,0.0122,0.0024,0.0024,0.0024,0.0024,0.0391,0.0024
0.0049,0.0024,0.0024,0.0098,0.0024,0.0024,0.0024,0.0049,0.022,0.0024
0.0171,0.0098,0.0293,0.0439,0.0024,0.0024,0.0024,0.0024,0.0464,0.0024
0.0342,0.0024,0.0024,0.0195,0.0024,0.0024,0.0024,0.0024,0.1147,0.0024
0.0269,0.0024,0.0024,0.0049,0.0024,0.0024,0.0024,0.0024,0.083,0.0024
0.0293,0.0024,0.0049,0.0098,0.0024,0.0024,0.0024,0.0024,0.0879,0.0024
0.0122,0.0024,0.0024,0.0269,0.0024,0.0024,0.0024,0.0024,0.0439,0.0024
0.0146,0.0049,0.0024,0.0146,0.0049,0.0024,0.0024,0.0024,0.0098,0.0024
0.0049,0.0024,0.0024,0.0146,0.0024,0.0024,0.0024,0.0024,0.0024,0.0024
0.0049,0.0073,0.0024,0.0049,0.0024,0.0024,0.0024,0.0024,0.0024,0.0024
0.0293,0.0049,0.0024,0.0024,0.0024,0.0024,0.0024,0.0024,0.0195,0.0024
0.0415,0.0024,0.0024,0.0171,0.0024,0.0024,0.0024,0.0024,0.022,0.0024
0.127,0.0732,0.0024,0.0146,0.0024,0.0024,0.0024,0.0024,0.0513,0.0024
0.0732,0.0024,0.0098,0.0293,0.0024,0.0024,0.0024,0.0024,0.0488,0.0024
0.1636,0.0757,0.0586,0.0293,0.0024,0.0024,0.0024,0.0195,0.1025,0.0269
0.1904,0.0806,0.0732,0.022,0.0024,0.0024,0.0024,0.0244,0.083,0.0342
0.2344,0.0757,0.0684,0.0146,0.0049,0.0024,0.0024,0.0244,0.0659,0.0317
0.166,0.061,0.0757,0.0073,0.0024,0.0024,0.0024,0.0391,0.0171,0.0342
0.21,0.1538,0.0977,0.0171,0.0049,0.0024,0.0024,0.0879,0.0659,0.0806
0.3662,0.6323,0.1831,0.0513,0.0024,0.0024,0.0024,0.0391,0.249,0.0024
0.166,0.1538,0.1221,0.0537,0.0049,0.0024,0.0024,0.0537,0.3662,0.0024
0.5664,0.3906,0.1538,0.0488,0.0024,0.0024,0.0024,0.0635,0.3687,0.0146
0.6128,0.3931,0.127,0.0439,0.0024,0.0024,0.0024,0.0806,0.4028,0.022
0.7495,0.3711,0.1245,0.0391,0.0195,0.0024,0.0171,0.2197,0.3906,0.0366
0.7007,0.3882,0.127,0.0513,0.0146,0.0024,0.0122,0.1978,0.3931,0.0415
0.5591,0.4004,0.1733,0.0977,0.0073,0.0024,0.0024,0.1538,0.5396,0.0293
0.5835,0.2466,0.1001,0.0391,0.0024,0.0024,0.0024,0.1416,0.4077,0.0317
0.5591,0.1563,0.1416,0.0586,0.0244,0.0024,0.0024,0.1514,0.6177,0.0244
0.5981,0.2026,0.1343,0.0513,0.0366,0.0024,0.0024,0.144,0.6812,0.0244
0.52,0.4663,0.0781,0.0171,0.0293,0.0024,0.0024,0.1782,0.6299,0.0171
0.6396,0.3467,0.0708,0.0024,0.0122,0.0024,0.0024,0.3491,0.7788,0.0098
0.6763,0.4053,0.1099,0.0342,0.0244,0.0024,0.0049,0.376,0.7056,0.0317
0.5469,0.3687,0.1221,0.0513,0.0464,0.0024,0.0024,0.3979,0.9937,0.0391
0.4907,0.4468,0.083,0.0415,0.0464,0.0024,0.0024,0.3784,1.1182,0.0513
0.5371,0.4126,0.2393,0.0586,0.0732,0.0024,0.0024,0.437,1.0278,0.0366
0.542,0.4443,0.1245,0.0366,0.0659,0.0024,0.0171,0.5469,1.0938,0.0635
0.6006,0.4565,0.1343,0.0439,0.0879,0.0049,0.0073,0.52,1.2549,0.0635
0.4907,0.3882,0.1221,0.0391,0.0586,0.0024,0.0049,0.625,1.2061,0.0684
0.4834,0.354,0.1245,0.0562,0.0562,0.0049,0.0049,0.625,1.3208,0.0684
0.6104,0.3979,0.2539,0.1147,0.0562,0.0024,0.0073,0.6372,1.3062,0.0293
0.6543,0.4224,0.271,0.1074,0.0635,0.0024,0.0049,0.603,1.2549,0.0342
0.5664,0.415,0.1855,0.0708,0.0977,0.0024,0.0024,0.5371,1.1816,0.0562
0.6543,0.6079,0.1587,0.0684,0.1099,0.0024,0.022,0.769,1.1743,0.0854
0.73,0.7227,0.2759,0.0903,0.0806,0.0024,0.0195,0.708,1.145,0.0781
0.8569,0.5493,0.1514,0.0684,0.0879,0.0073,0.0171,0.7788,1.1646,0.0708
0.7251,0.5688,0.2661,0.127,0.0879,0.0049,0.0342,0.8813,1.3965,0.0879
0.6177,0.4688,0.2124,0.1807,0.0879,0.0024,0.0317,1.0327,1.1865,0.0732
0.6152,0.6055,0.1953,0.2124,0.1172,0.0098,0.0366,1.0669,1.2061,0.0757
0.5859,0.5957,0.21,0.2173,0.1074,0.0073,0.0317,1.0474,1.2061,0.0781
0.5249,0.5151,0.1245,0.4053,0.0415,0.0024,0.0024,0.8936,1.1548,0.0391
0.6592,0.6226,0.2148,0.3931,0.0488,0.0024,0.022,0.8228,1.2012,0.0635
0.6055,0.5444,0.1709,0.3979,0.0464,0.0024,0.0195,0.9326,1.1182,0.0537
0.5518,0.5615,0.2563,0.4468,0.0684,0.0024,0.0244,0.7739,1.3354,0.0513
0.4102,0.6201,0.2661,0.3369,0.0342,0.0024,0.0024,0.4956,0.9766,0.0171
0.4053,0.542,0.2295,0.3223,0.0342,0.0024,0.0024,0.5054,0.8887,0.0195
0.4297,0.5859,0.2051,0.3149,0.0195,0.0024,0.0024,0.4419,0.9277,0.0122
0.4736,0.7104,0.2319,0.3149,0.0171,0.0024,0.0024,0.415,1.0059,0.0098
0.4468,0.52,0.2954,0.3125,0.0293,0.0024,0.0024,0.3882,0.7813,0.0293
0.4102,0.4614,0.2661,0.2832,0.0293,0.0024,0.0024,0.3711,0.6934,0.0244
0.3662,0.4102,0.2393,0.2515,0.0269,0.0024,0.0024,0.3784,0.6201,0.0171
0.3906,0.5688,0.2417,0.2734,0.0146,0.0024,0.0024,0.4077,0.5737,0.0244
0.3711,0.686,0.21,0.4712,0.0391,0.0024,0.0024,0.3247,1.0815,0.0244
0.3101,0.6421,0.1953,0.5273,0.0488,0.0024,0.0024,0.3198,1.0693,0.0195
0.3613,0.6274,0.1489,0.3687,0.0464,0.0024,0.0024,0.2637,0.6812,0.0024
0.2808,0.5322,0.1392,0.2441,0.0293,0.0024,0.0024,0.2393,0.6128,0.0024
0.3247,0.4785,0.1147,0.2075,0.0073,0.0024,0.0024,0.1758,0.4395,0.0024
0.2808,0.188,0.1147,0.2563,0.0098,0.0024,0.0024,0.0391,0.6421,0.0024
0.4761,0.3345,0.166,0.2637,0.0049,0.0024,0.0024,0.0537,0.7104,0.0024
0.4907,0.2686,0.1489,0.2832,0.0024,0.0024,0.0024,0.0659,0.8887,0.0024
0.4663,0.3394,0.1343,0.2295,0.0024,0.0024,0.0024,0.0562,0.6641,0.0073
0.3833,0.4004,0.1099,0.1831,0.0024,0.0024,0.0024,0.061,0.4077,0.0073
0.4102,0.5933,0.1147,0.1489,0.0024,0.0024,0.0024,0.061,0.3101,0.0049
0.3931,0.2612,0.061,0.0732,0.0024,0.0024,0.0024,0.0342,0.1733,0.0024
0.6104,0.3589,0.1587,0.1489,0.0122,0.0024,0.0024,0.0781,0.2075,0.0293
1.1255,0.1318,0.0879,0.1636,0.0732,0.0024,0.0024,0.1685,0.2954,0.0317
1.1768,0.1318,0.0757,0.1758,0.0659,0.0024,0.0024,0.1782,0.3149,0.0317
0.813,0.3052,0.0586,0.166,0.0488,0.0024,0.0024,0.1196,0.271,0.0073
0.5957,0.3345,0.0879,0.1563,0.0366,0.0024,0.0024,0.1392,0.3125,0.0073
0.6348,0.4834,0.1294,0.1636,0.0244,0.0024,0.0024,0.1392,0.3662,0.0122
0.6104,0.5762,0.127,0.1245,0.0195,0.0024,0.0024,0.1221,0.293,0.0073
0.4004,0.3589,0.1343,0.1611,0.0024,0.0024,0.0024,0.0562,0.144,0.0024
0.4614,0.3271,0.1221,0.1367,0.0024,0.0024,0.0024,0.0586,0.1123,0.0122
0.481,0.3125,0.1245,0.127,0.0024,0.0024,0.0024,0.0586,0.1392,0.0171
0.376,0.1685,0.0952,0.0488,0.0049,0.0024,0.0024,0.0928,0.2124,0.0171
0.3662,0.1636,0.083,0.0366,0.0024,0.0024,0.0024,0.0928,0.1929,0.0073
0.4077,0.2026,0.0903,0.0464,0.0024,0.0024,0.0024,0.0708,0.1074,0.0024
0.2148,0.188,0.1831,0.0586,0.0024,0.0024,0.0024,0.0195,0.2539,0.0024
0.2344,0.144,0.0562,0.0098,0.0024,0.0024,0.0024,0.0342,0.1514,0.0024
0.1978,0.0928,0.0293,0.0024,0.0024,0.0024,0.0024,0.0195,0.127,0.0024
0.2246,0.2197,0.0659,0.0073,0.0024,0.0024,0.0024,0.0317,0.0806,0.0024
0.2222,0.1807,0.0586,0.0024,0.0024,0.0024,0.0024,0.0146,0.0635,0.0024
0.2295,0.1709,0.0415,0.0024,0.0024,0.0024,0.0024,0.0171,0.0244,0.0024
0.1636,0.0879,0.0024,0.0024,0.0024,0.0024,0.0024,0.0073,0.0586,0.0024
0.0928,0.0635,0.0049,0.0024,0.0049,0.0024,0.0024,0.0024,0.022,0.0024
0.0879,0.1538,0.0024,0.0024,0.0024,0.0024,0.0024,0.0024,0.0024,0.0024
0.0537,0.0366,0.0537,0.0098,0.0024,0.0024,0.0024,0.0024,0.1489,0.0024
0.0342,0.0317,0.0049,0.0024,0.0024,0.0024,0.0024,0.0024,0.0439,0.0024
0.0122,0.0024,0.0024,0.0024,0.0024,0.0024,0.0024,0.0024,0.0146,0.0024
0.0171,0.0024,0.0024,0.0024,0.0024,0.0024,0.0024,0.0146,0.0903,0.0024
0.0244,0.0024,0.0024,0.0024,0.0024,0.0024,0.0024,0.0293,0.1587,0.0049
0.0317,0.0024,0.0073,0.0024,0.0049,0.0024,0.0024,0.0391,0.2124,0.0049
0.21,0.0073,0.0342,0.0024,0.0171,0.0024,0.0024,0.3003,0.3613,0.0098
0.4175,0.0317,0.0928,0.0464,0.0024,0.0024,0.0024,0.2002,0.5396,0.0049
0.3931,0.0562,0.0488,0.0098,0.0024,0.0024,0.0024,0.1611,0.3418,0.0073
0.3687,0.0562,0.0928,0.022,0.0024,0.0024,0.0024,0.105,0.2808,0.0098
0.3735,0.0537,0.0952,0.0269,0.0024,0.0024,0.0024,0.1245,0.2686,0.0049
0.3833,0.0977,0.061,0.0244,0.0024,0.0024,0.0024,0.1587,0.2222,0.0024
0.415,0.0757,0.0342,0.0049,0.0024,0.0024,0.0024,0.1978,0.2393,0.0024
0.4224,0.0659,0.0269,0.0024,0.0024,0.0024,0.0024,0.2002,0.2515,0.0024
0.4834,0.1001,0.2002,0.0439,0.0122,0.0024,0.0024,0.2173,0.2588,0.0195
0.4858,0.1001,0.2026,0.0464,0.0098,0.0024,0.0024,0.2246,0.2856,0.0171
0.498,0.1123,0.1538,0.0293,0.0171,0.0024,0.0024,0.2734,0.3125,0.0293
0.4736,0.1025,0.1538,0.0293,0.022,0.0024,0.0024,0.2612,0.3027,0.0293
0.4517,0.0732,0.144,0.0317,0.0366,0.0024,0.0024,0.2075,0.3735,0.022
0.3711,0.0659,0.1245,0.0464,0.0244,0.0024,0.0024,0.1929,0.5005,0.0293
0.3979,0.0732,0.1221,0.0439,0.0269,0.0024,0.0024,0.2075,0.5396,0.0244
0.5518,0.0537,0.083,0.0684,0.0342,0.0024,0.0024,0.3394,0.5957,0.022
0.4761,0.1318,0.0586,0.0317,0.0415,0.0024,0.0024,0.4688,0.7471,0.0317
0.4761,0.1099,0.0684,0.0293,0.0317,0.0024,0.0073,0.4688,0.7202,0.061
0.5396,0.0854,0.0562,0.0293,0.0195,0.0024,0.0024,0.4199,0.5811,0.0488
0.5469,0.0366,0.0684,0.0366,0.0098,0.0024,0.0024,0.3955,0.498,0.0269
0.5664,0.0293,0.0562,0.0464,0.0171,0.0024,0.0024,0.3906,0.5566,0.0269
0.6226,0.0708,0.083,0.0757,0.0757,0.0024,0.0024,0.4688,0.8447,0.0342
0.6763,0.0757,0.0513,0.0806,0.0659,0.0024,0.0024,0.4736,0.9302,0.0171
0.6104,0.249,0.1636,0.0659,0.1147,0.0024,0.0122,0.5859,1.1084,0.0366
0.5664,0.2075,0.1538,0.0732,0.0952,0.0024,0.0122,0.6128,1.0474,0.0366
0.6104,0.3613,0.1978,0.1001,0.1245,0.0073,0.0293,0.7373,1.1401,0.0513
0.5786,0.3027,0.1587,0.144,0.0781,0.0024,0.0195,0.6396,1.2231,0.061
0.5908,0.3052,0.1514,0.1563,0.0708,0.0024,0.0244,0.686,1.2769,0.0537
0.6079,0.3979,0.166,0.1392,0.0757,0.0049,0.022,0.7568,1.2646,0.0586
0.7495,0.3369,0.2441,0.1221,0.0659,0.0098,0.0269,0.7324,1.0962,0.0757
0.5566,0.3467,0.2563,0.1489,0.0317,0.0073,0.0098,0.5957,1.2842,0.0732
0.5347,0.3613,0.1978,0.1416,0.061,0.0024,0.0171,0.8691,1.1255,0.1001
0.5566,0.437,0.2002,0.1489,0.0586,0.0024,0.0195,0.9131,1.2158,0.1099
0.6714,0.2954,0.1685,0.1636,0.0464,0.0122,0.0244,1.1011,1.3623,0.0977
0.647,0.2979,0.1636,0.1489,0.0439,0.0073,0.0269,1.0938,1.3354,0.0977
0.686,0.3784,0.2148,0.1929,0.0732,0.0073,0.0244,0.8789,1.3647,0.0781
0.6934,0.3638,0.1978,0.1978,0.0684,0.0073,0.0195,0.8301,1.2793,0.0781
0.6445,0.5859,0.2002,0.21,0.0293,0.0024,0.0171,0.9741,1.0327,0.1074
0.5615,0.3101,0.166,0.2783,0.0024,0.0024,0.0195,0.8594,1.2451,0.0903
0.4028,0.0757,0.1978,0.1709,0.0293,0.0024,0.0024,0.3638,0.6934,0.0391
0.5078,0.0684,0.1929,0.1514,0.0195,0.0024,0.0024,0.3101,0.4639,0.0317
0.4297,0.0757,0.2295,0.2148,0.0171,0.0024,0.0024,0.3638,0.5493,0.0171
0.6372,0.1074,0.1782,0.1538,0.0171,0.0024,0.0024,0.3247,0.3564,0.0195
0.6201,0.0806,0.1001,0.1978,0.0391,0.0024,0.0049,0.3296,0.4565,0.0146
0.7642,0.1782,0.0537,0.1636,0.0342,0.0024,0.0073,0.3442,0.459,0.0562
0.7202,0.1489,0.1196,0.1831,0.0366,0.0024,0.0024,0.2002,0.4858,0.0439
0.6787,0.1196,0.1636,0.1978,0.0488,0.0024,0.0024,0.2222,0.5005,0.0342
0.8765,0.1196,0.1636,0.166,0.0439,0.0024,0.0024,0.2295,0.4224,0.0488
0.9473,0.1221,0.2368,0.2246,0.0562,0.0024,0.0024,0.1782,0.3711,0.0586
0.7129,0.1367,0.0781,0.144,0.0317,0.0024,0.0024,0.1294,0.2368,0.061
0.7104,0.1538,0.0684,0.1343,0.0464,0.0024,0.0024,0.1294,0.2148,0.0488
0.6958,0.1538,0.0854,0.144,0.0684,0.0024,0.0024,0.1172,0.2637,0.0293
0.8423,0.1221,0.083,0.1367,0.0366,0.0024,0.0024,0.1172,0.3687,0.0293
0.8374,0.127,0.0879,0.1318,0.0366,0.0024,0.0024,0.1147,0.3564,0.0269
0.6665,0.0928,0.0781,0.1514,0.0024,0.0024,0.0024,0.0732,0.3149,0.0195
0.6372,0.1733,0.0879,0.1489,0.0073,0.0024,0.0024,0.061,0.3271,0.022
0.6079,0.1367,0.1123,0.1611,0.0146,0.0024,0.0024,0.0586,0.332,0.0146
0.5273,0.1147,0.0952,0.1294,0.0049,0.0024,0.0024,0.0586,0.2832,0.0024
0.4297,0.0879,0.0488,0.083,0.0024,0.0024,0.0024,0.0659,0.2979,0.0024
0.3687,0.1001,0.0854,0.1514,0.0171,0.0024,0.0024,0.0293,0.3442,0.0024
0.2148,0.0073,0.0024,0.0464,0.0024,0.0024,0.0024,0.0122,0.1929,0.0024
0.1709,0.0293,0.0464,0.0854,0.0049,0.0024,0.0024,0.0049,0.1538,0.0024
0.1733,0.0317,0.0439,0.0854,0.0024,0.0024,0.0024,0.0024,0.1538,0.0024
0.3174,0.1538,0.1001,0.0854,0.0024,0.0024,0.0024,0.0073,0.1709,0.0024
0.1416,0.0293,0.0806,0.1221,0.0098,0.0024,0.0024,0.0024,0.1929,0.0024
0.1147,0.0024,0.0732,0.0854,0.0024,0.0024,0.0024,0.0024,0.2319,0.0024
0.0928,0.0024,0.061,0.0928,0.0024,0.0024,0.0024,0.0024,0.2051,0.0024
0.1343,0.0024,0.0342,0.0024,0.0024,0.0024,0.0024,0.0562,0.1343,0.0049
0.1538,0.0024,0.0049,0.0024,0.0122,0.0024,0.0024,0.1245,0.1636,0.0024
0.1904,0.0195,0.0513,0.0024,0.0098,0.0024,0.0024,0.105,0.1245,0.0024
0.3564,0.0073,0.0024,0.0024,0.0024,0.0024,0.0024,0.0464,0.1855,0.0098
0.2881,0.0024,0.0415,0.0024,0.0146,0.0024,0.0024,0.0781,0.2148,0.0024
0.4736,0.0684,0.0806,0.0146,0.0293,0.0024,0.0024,0.21,0.2954,0.0122
0.3687,0.0439,0.061,0.0098,0.0024,0.0024,0.0024,0.2368,0.3149,0.0171
0.3564,0.0366,0.0562,0.0073,0.0024,0.0024,0.0024,0.2124,0.3003,0.0195
0.3003,0.0342,0.0317,0.0024,0.0024,0.0024,0.0024,0.2246,0.2637,0.0122
0.4102,0.0415,0.0342,0.0024,0.0024,0.0024,0.0024,0.21,0.3931,0.0024
0.3735,0.061,0.0122,0.0024,0.0024,0.0024,0.0024,0.2319,0.3198,0.0024
0.3003,0.0464,0.0708,0.0146,0.0024,0.0024,0.0024,0.2173,0.3442,0.0024
0.4688,0.0928,0.0879,0.0439,0.0293,0.0024,0.0024,0.3369,0.4468,0.0244
0.5005,0.0708,0.0757,0.0342,0.0366,0.0024,0.0024,0.3662,0.5151,0.0122
0.5371,0.0635,0.0635,0.0269,0.0366,0.0024,0.0024,0.3516,0.5591,0.0073
0.6299,0.1001,0.0977,0.0146,0.0171,0.0024,0.0049,0.4224,0.8569,0.0342
0.5347,0.061,0.0757,0.0024,0.0122,0.0024,0.0024,0.3564,0.686,0.0171
0.4492,0.0342,0.0317,0.0024,0.0024,0.0024,0.0024,0.3711,0.5273,0.0073
0.4297,0.0366,0.0464,0.0024,0.0049,0.0024,0.0024,0.4248,0.5908,0.0073
0.4565,0.0562,0.0366,0.0171,0.0391,0.0024,0.0024,0.4663,0.7861,0.0537
0.4858,0.144,0.1465,0.0317,0.0513,0.0024,0.0049,0.5249,1.0962,0.0684
0.5811,0.2515,0.4663,0.0952,0.0439,0.0024,0.022,0.6787,1.1914,0.1123
0.6274,0.3125,0.2466,0.0757,0.061,0.0024,0.0171,0.8496,1.062,0.1538
0.7764,0.4541,0.4517,0.1563,0.0977,0.0171,0.0415,1.1768,2.1362,0.1733
0.813,0.4663,0.3296,0.1855,0.0903,0.0195,0.0854,1.0889,1.9336,0.2246
0.7324,0.6079,0.4419,0.2222,0.0806,0.0244,0.0879,1.0303,2.1484,0.3052
0.8374,0.6055,0.4688,0.21,0.0952,0.0244,0.0903,1.062,2.0825,0.4004
1.2256,0.7373,0.4883,0.3101,0.1123,0.0171,0.1343,1.5625,1.9751,0.437
1.1157,0.8887,0.5859,0.4321,0.1416,0.0464,0.127,1.5942,2.0288,0.3687
1.0913,0.979,0.5591,0.4102,0.144,0.0488,0.1172,1.5747,1.9312,0.4028
1.0913,0.9839,0.5078,0.4028,0.127,0.0415,0.0977,1.5259,1.8628,0.3735
1.1279,0.9229,0.5151,0.3955,0.1245,0.0366,0.105,1.5527,1.9043,0.4102
1.2695,0.8813,0.5737,0.4028,0.1245,0.0415,0.1196,1.6138,1.9995,0.4004
1.3672,0.9351,0.6445,0.4175,0.1172,0.0439,0.1221,1.5942,1.897,0.4199
0.8179,0.6006,0.437,0.4639,0.0781,0.0098,0.0708,1.3428,1.3867,0.2515
0.8667,0.5981,0.3076,0.4712,0.0879,0.0024,0.0586,1.2427,1.416,0.1953
0.8398,0.3687,0.2539,0.376,0.0366,0.0024,0.0415,0.9229,1.2109,0.1538
1.0767,0.3296,0.4785,0.3784,0.0488,0.0049,0.0464,0.9717,1.0693,0.0977
1.1719,0.2954,0.4419,0.3906,0.0537,0.0024,0.0391,1.0083,1.1353,0.083
1.1133,0.3125,0.4199,0.3857,0.0562,0.0024,0.0342,1.001,1.1792,0.083
1.1353,0.4077,0.3735,0.4004,0.0684,0.0024,0.0342,1.0303,1.1938,0.083
0.874,0.3247,0.3906,0.4712,0.0659,0.0024,0.0195,0.7642,1.0474,0.1025
0.9863,0.293,0.4272,0.4663,0.0806,0.0024,0.0171,0.6299,0.9473,0.0903
1.2012,0.2808,0.3711,0.459,0.083,0.0024,0.0146,0.5078,1.0474,0.1025
1.1743,0.2417,0.5054,0.5493,0.083,0.0024,0.0244,0.5737,1.228,0.1001
1.1719,0.2954,0.5273,0.5347,0.0806,0.0049,0.0293,0.5566,1.2451,0.1318
1.0229,0.2783,0.2051,0.4443,0.1123,0.0024,0.0073,0.4956,0.6494,0.1123
0.9985,0.3296,0.2026,0.4736,0.1074,0.0024,0.0049,0.4883,0.6396,0.1025
1.0034,0.3516,0.2222,0.4688,0.0415,0.0024,0.0024,0.4199,0.8496,0.1001
0.7471,0.2173,0.1489,0.3784,0.0317,0.0024,0.0024,0.3857,0.7446,0.0586
0.6323,0.1123,0.1929,0.3149,0.022,0.0024,0.0024,0.3247,0.8081,0.022
0.4297,0.1807,0.1782,0.2368,0.0073,0.0024,0.0024,0.2539,0.5884,0.0024
0.3271,0.2759,0.1172,0.1636,0.0024,0.0024,0.0024,0.2173,0.3296,0.0024
0.3955,0.1831,0.0708,0.1392,0.0024,0.0024,0.0024,0.2368,0.2148,0.0024
0.4272,0.2271,0.0977,0.0537,0.0024,0.0024,0.0024,0.0708,0.2539,0.0024
0.3003,0.3101,0.0684,0.0391,0.0024,0.0024,0.0024,0.0391,0.1611,0.0024
0.1099,0.2246,0.0049,0.0024,0.0024,0.0024,0.0024,0.1563,0.0024,0.0049
0.1172,0.2222,0.0024,0.0024,0.0024,0.0024,0.0024,0.2344,0.0024,0.0024
0.1611,0.1685,0.0073,0.0024,0.0024,0.0024,0.0024,0.3052,0.0757,0.0293
0.2515,0.127,0.0049,0.0024,0.0024,0.0024,0.0024,0.2588,0.144,0.0293
0.4932,0.3271,0.0391,0.0024,0.0146,0.0024,0.0024,0.2637,0.2051,0.0439
0.4688,0.2344,0.0488,0.0024,0.0073,0.0024,0.0024,0.2612,0.2075,0.0415
0.5371,0.1294,0.0781,0.0098,0.0098,0.0024,0.0024,0.3003,0.3101,0.0415
0.5347,0.0928,0.0684,0.022,0.0024,0.0024,0.0049,0.415,0.4102,0.0366
0.5054,0.1074,0.0684,0.0122,0.0049,0.0024,0.0073,0.4077,0.4419,0.0366
0.5078,0.144,0.083,0.0098,0.0073,0.0024,0.0049,0.3979,0.4663,0.0317
0.5127,0.1733,0.0928,0.0098,0.0073,0.0024,0.0024,0.3882,0.4639,0.0244
0.4858,0.1685,0.0732,0.0122,0.0293,0.0024,0.0024,0.3638,0.4834,0.0122
0.4736,0.1636,0.0488,0.0146,0.0415,0.0024,0.0024,0.2954,0.4736,0.0073
0.437,0.1367,0.0269,0.0049,0.0366,0.0024,0.0024,0.2759,0.4761,0.0098
0.5322,0.1514,0.022,0.0073,0.0146,0.0024,0.0049,0.4736,0.5908,0.0122
0.4736,0.1733,0.0366,0.0098,0.0122,0.0024,0.0122,0.4834,0.7104,0.0073
0.3418,0.2612,0.0317,0.0122,0.0269,0.0024,0.0024,0.415,1.0815,0.0244
0.603,0.6714,0.2124,0.0537,0.0391,0.0024,0.0122,0.9375,0.957,0.0659
0.5493,0.4639,0.1758,0.1318,0.0952,0.0073,0.022,0.7593,1.2842,0.0537
0.5591,0.6714,0.1733,0.1318,0.0903,0.0073,0.022,0.8423,1.4014,0.0659
0.5591,0.6958,0.1563,0.1196,0.083,0.0073,0.0195,0.8472,1.3867,0.0684
0.5518,0.7397,0.1563,0.1123,0.0806,0.0049,0.0195,0.8643,1.4673,0.0659
0.5493,0.6177,0.1489,0.1538,0.0684,0.0098,0.0244,0.8594,1.4771,0.0732
0.5664,0.6128,0.1367,0.127,0.0781,0.0146,0.0293,0.8667,1.5771,0.0732
0.7324,0.7056,0.2124,0.188,0.1099,0.0146,0.0391,0.8374,1.7383,0.1392
0.6934,0.7373,0.2075,0.2002,0.0903,0.0073,0.0464,0.8154,1.6846,0.1147
0.6836,0.6055,0.1904,0.1978,0.0977,0.0122,0.0391,0.8447,1.6577,0.1074
0.918,0.6885,0.4248,0.2539,0.1416,0.0293,0.0806,1.4307,1.6357,0.1294
0.8765,0.6055,0.3223,0.2368,0.1294,0.0195,0.0757,1.4185,1.7017,0.1221
0.8228,0.6519,0.2368,0.2002,0.0977,0.0122,0.0635,1.3037,1.4624,0.1123
0.8057,0.6958,0.188,0.2954,0.0732,0.0122,0.0513,1.0107,1.3867,0.1514
0.6909,0.5493,0.3223,0.3809,0.0781,0.0195,0.0439,0.9546,1.6138,0.1367
0.7959,0.6616,0.2856,0.3467,0.0854,0.0293,0.0732,1.1328,1.4941,0.1855
0.835,0.7178,0.2808,0.354,0.0806,0.0269,0.0806,1.1304,1.5161,0.1929
0.8472,0.6177,0.3198,0.3882,0.0757,0.022,0.0879,1.1816,1.2305,0.2075
0.8569,0.6226,0.3003,0.3662,0.0708,0.0244,0.0854,1.1475,1.1377,0.2124
0.9912,1.0107,0.3638,0.3882,0.0659,0.0269,0.0903,1.46,1.2256,0.1953
1.0229,1.1792,0.4639,0.4932,0.2686,0.0488,0.1416,1.8311,1.3477,0.2075
0.7104,0.7666,0.2148,0.3516,0.0757,0.0171,0.0854,1.3037,1.1499,0.144
0.6934,0.7739,0.2222,0.3394,0.0708,0.0122,0.0757,1.2427,1.1938,0.1392
0.7104,0.6812,0.2539,0.332,0.0684,0.0171,0.0781,1.1987,1.2866,0.1392
0.6616,0.603,0.2051,0.3247,0.0562,0.0146,0.0684,1.145,1.2036,0.1367
0.5981,0.4395,0.3003,0.498,0.0586,0.0098,0.0342,0.9448,1.1035,0.1074
0.5908,0.437,0.1685,0.3711,0.0635,0.0024,0.022,0.6421,0.813,0.0659
0.4858,0.3076,0.1318,0.3101,0.0854,0.0024,0.0024,0.4419,0.6079,0.0391
0.5688,0.459,0.1709,0.3027,0.0952,0.0024,0.0049,0.4126,0.5811,0.0464
0.6299,0.481,0.1587,0.2539,0.0708,0.0024,0.0024,0.4517,0.4785,0.0439
0.6201,0.5151,0.1587,0.2515,0.0708,0.0049,0.0098,0.5273,0.4932,0.0415
0.6958,0.4614,0.1367,0.2759,0.0586,0.0024,0.0122,0.5615,0.5176,0.0464
0.6934,0.3467,0.105,0.2612,0.0537,0.0024,0.0024,0.4712,0.4932,0.0659
0.8252,0.2881,0.0928,0.2808,0.0977,0.0024,0.0024,0.3857,0.2808,0.0659
0.8618,0.3857,0.0806,0.2637,0.083,0.0024,0.0024,0.3491,0.2734,0.0586
0.4761,0.1733,0.0269,0.2441,0.0195,0.0024,0.0024,0.1538,0.2197,0.0049
0.4297,0.2441,0.0244,0.1123,0.0073,0.0024,0.0024,0.0635,0.1221,0.0122
0.3979,0.2246,0.0171,0.1294,0.0049,0.0024,0.0024,0.0586,0.1147,0.0122
0.3247,0.1758,0.0024,0.1221,0.0024,0.0024,0.0024,0.0488,0.0806,0.0073
0.3296,0.1416,0.0024,0.0781,0.0049,0.0024,0.0024,0.0562,0.0464,0.0024
0.3589,0.2661,0.0195,0.0488,0.0024,0.0024,0.0024,0.0635,0.0269,0.0024
0.3369,0.2393,0.0024,0.0195,0.0024,0.0024,0.0024,0.0464,0.0024,0.0049
0.3296,0.1831,0.0024,0.0122,0.0024,0.0024,0.0024,0.0391,0.0024,0.0024
0.0317,0.0024,0.0024,0.0024,0.0024,0.0024,0.0024,0.0098,0.0293,0.0024
0.0488,0.0024,0.0024,0.0024,0.0024,0.0024,0.0024,0.0098,0.0537,0.0024
0.2173,0.1147,0.0122,0.0024,0.0049,0.0024,0.0024,0.0952,0.0806,0.0098
0.354,0.1416,0.0073,0.0024,0.0024,0.0024,0.0024,0.083,0.0928,0.0171
0.3638,0.1465,0.0098,0.0024,0.0024,0.0024,0.0024,0.0684,0.1074,0.0049
0.3076,0.1538,0.0024,0.0024,0.0049,0.0024,0.0024,0.1147,0.1587,0.0073
0.2954,0.1807,0.0024,0.0024,0.0024,0.0024,0.0024,0.1587,0.2319,0.0024
0.4297,0.1855,0.0024,0.0024,0.0024,0.0024,0.0024,0.2466,0.2026,0.0024
0.3369,0.1587,0.0073,0.0024,0.0024,0.0024,0.0024,0.188,0.2417,0.0024
0.415,0.2979,0.0366,0.0024,0.0146,0.0024,0.0098,0.2563,0.4272,0.0171
0.4102,0.2417,0.0537,0.0195,0.061,0.0024,0.0073,0.3735,0.7422,0.0122
0.4932,0.1855,0.0317,0.0024,0.0269,0.0024,0.0024,0.4565,0.625,0.0098
0.5371,0.1904,0.0269,0.0024,0.0195,0.0024,0.0024,0.5078,0.6006,0.0073
0.5566,0.2759,0.0244,0.0049,0.0293,0.0024,0.0073,0.4028,0.7007,0.0122
0.5127,0.2295,0.0342,0.0098,0.0366,0.0073,0.0098,0.4053,0.7861,0.0171
0.4077,0.1074,0.2808,0.0415,0.0659,0.0049,0.0098,0.5103,1.2964,0.0391
0.5054,0.2124,0.1147,0.0244,0.0586,0.0024,0.0073,0.5469,1.2012,0.0366
0.5469,0.3223,0.0928,0.0391,0.0806,0.0024,0.0024,0.5103,1.2866,0.0195
0.5981,0.3223,0.1563,0.061,0.0781,0.0098,0.0171,0.5273,1.3086,0.0977
0.5615,0.4346,0.1782,0.061,0.0854,0.0073,0.0415,0.6152,1.2207,0.1782
0.6006,0.4565,0.2417,0.105,0.1025,0.0146,0.0366,0.9155,1.0718,0.1514
0.5859,0.4199,0.2588,0.1147,0.1001,0.0146,0.0317,0.8667,1.106,0.1416
0.5786,0.4321,0.2686,0.1245,0.0879,0.0122,0.022,0.686,1.4282,0.1099
0.4932,0.3882,0.1563,0.2026,0.0586,0.0024,0.0073,0.4419,1.3916,0.0415
0.4688,0.3662,0.2002,0.2344,0.0879,0.0024,0.0171,0.4932,1.5771,0.0439
0.5566,0.481,0.1929,0.1807,0.0732,0.0098,0.0537,0.7544,1.4868,0.3516
0.5469,0.5444,0.2173,0.1709,0.0854,0.0049,0.0513,0.8154,1.499,0.3296
0.5762,0.5566,0.2026,0.1636,0.0757,0.0024,0.0391,0.8276,1.3062,0.3101
0.6616,0.5615,0.2441,0.3369,0.0781,0.0171,0.0757,0.9717,1.7212,0.3662
0.6567,0.5518,0.2588,0.2954,0.0732,0.0171,0.0659,0.9668,1.7798,0.3174
0.6592,0.6348,0.2319,0.2637,0.0757,0.0098,0.0635,0.9814,1.7139,0.3564
0.5811,0.5078,0.1636,0.2026,0.0537,0.0073,0.0635,0.8496,1.3232,0.3613
0.5347,0.5103,0.1538,0.2417,0.0439,0.0073,0.061,0.8276,1.2256,0.2881
0.5444,0.4565,0.1929,0.3247,0.061,0.0073,0.0488,0.7715,1.4502,0.2148
0.542,0.415,0.2173,0.354,0.0659,0.0073,0.0415,0.8301,1.6577,0.1929
0.7104,0.5957,0.2124,0.6421,0.0977,0.0293,0.1172,1.0059,1.7871,0.6128
0.6177,0.5005,0.1855,0.5469,0.0952,0.0269,0.1025,0.9155,1.8042,0.5444
0.625,0.6885,0.2344,0.5176,0.0854,0.0073,0.0439,0.7397,1.6699,0.3882
0.5396,0.5054,0.1978,0.4126,0.0708,0.0024,0.0513,0.752,1.3257,0.3809
0.5273,0.5054,0.2612,0.3882,0.0854,0.0024,0.0537,0.8008,1.3232,0.354
0.5249,0.4639,0.2734,0.332,0.1343,0.0073,0.0415,0.7056,1.2573,0.3027
0.5078,0.4883,0.2393,0.3394,0.1196,0.0024,0.0366,0.7129,1.1646,0.3467
0.376,0.4004,0.1587,0.2539,0.022,0.0024,0.0195,0.4688,0.8862,0.2612
0.2295,0.1831,0.1147,0.3882,0.0024,0.0024,0.0146,0.4321,0.979,0.2124
0.4443,0.2319,0.1514,0.354,0.0195,0.0024,0.0049,0.3198,0.7959,0.0903
0.5444,0.2686,0.1538,0.4004,0.0195,0.0024,0.0024,0.3149,0.8081,0.1074
0.5688,0.2539,0.1367,0.4224,0.0195,0.0024,0.0024,0.2954,0.8374,0.1074
0.5518,0.2563,0.144,0.4712,0.0537,0.0049,0.0024,0.2563,0.8984,0.0879
0.6128,0.2319,0.127,0.6274,0.1074,0.0024,0.0049,0.4272,1.3062,0.0732
0.813,0.3271,0.1001,0.5884,0.0952,0.0024,0.0171,0.5103,1.2939,0.0635
0.6372,0.2588,0.0806,0.6689,0.1074,0.0024,0.0024,0.3223,0.9692,0.0415
1.0693,0.1929,0.127,0.5273,0.0562,0.0024,0.0024,0.3394,0.9448,0.0659
1.084,0.1709,0.1147,0.52,0.0513,0.0024,0.0024,0.3394,0.9424,0.0659
0.9521,0.2783,0.0977,0.6177,0.0317,0.0024,0.0024,0.2979,0.7056,0.083
0.7227,0.2441,0.0708,0.5664,0.0317,0.0024,0.0024,0.2319,0.7178,0.0732
0.5249,0.1929,0.0513,0.542,0.0391,0.0024,0.0024,0.2075,0.6372,0.0659
0.437,0.166,0.0391,0.5518,0.0391,0.0024,0.0024,0.271,0.603,0.061
0.3833,0.1978,0.0317,0.5933,0.0391,0.0024,0.0024,0.3003,0.6494,0.0537
0.498,0.3101,0.0488,0.5298,0.0537,0.0024,0.0024,0.2661,0.5347,0.0244
0.4858,0.0757,0.0073,0.3979,0.0073,0.0024,0.0024,0.1929,0.3491,0.0049
0.415,0.0635,0.0024,0.3882,0.0024,0.0024,0.0024,0.1563,0.3125,0.0073
0.4077,0.061,0.0024,0.3809,0.0024,0.0024,0.0024,0.1538,0.3467,0.0122
0.2539,0.0708,0.0024,0.2393,0.0024,0.0024,0.0024,0.061,0.2344,0.0073
0.415,0.1123,0.0024,0.1807,0.0024,0.0024,0.0024,0.0562,0.1685,0.0073
0.3833,0.0928,0.0049,0.1147,0.0024,0.0024,0.0024,0.0488,0.1563,0.0049
0.2563,0.061,0.0024,0.0952,0.0049,0.0024,0.0024,0.0317,0.105,0.0024
0.293,0.166,0.0073,0.1025,0.0024,0.0024,0.0024,0.0293,0.1685,0.0024
0.2734,0.1782,0.0171,0.0806,0.0049,0.0024,0.0024,0.0244,0.0879,0.0024
0.2588,0.1465,0.0024,0.0659,0.0024,0.0024,0.0024,0.0244,0.0732,0.0024
0.188,0.1343,0.0024,0.0244,0.0024,0.0024,0.0024,0.0146,0.0513,0.0024
0.2246,0.0952,0.0024,0.0024,0.0024,0.0024,0.0024,0.0049,0.0024,0.0024
0.2686,0.1196,0.0098,0.0024,0.0024,0.0024,0.0024,0.0049,0.0024,0.0024
0.2661,0.1196,0.0073,0.0024,0.0024,0.0024,0.0024,0.0073,0.0024,0.0024
0.2539,0.0903,0.0024,0.0024,0.0024,0.0024,0.0024,0.0073,0.0024,0.0024
0.0635,0.0317,0.0024,0.0024,0.0024,0.0024,0.0024,0.0537,0.0024,0.0024
0.0708,0.0439,0.0024,0.0024,0.0024,0.0024,0.0024,0.0513,0.0024,0.0024
0.5957,0.5908,0.1978,0.0928,0.0366,0.0024,0.0024,0.1953,0.6177,0.1343
0.4883,0.5078,0.188,0.061,0.0806,0.0024,0.0195,0.4028,0.6226,0.2466
0.6567,0.6641,0.1636,0.0293,0.0928,0.0024,0.0098,0.4028,0.5103,0.1758
0.8276,0.5786,0.2612,0.061,0.0513,0.0024,0.0049,0.2783,0.4663,0.083
0.6519,0.4736,0.2515,0.0781,0.0342,0.0024,0.0024,0.249,0.5029,0.0732
0.7739,0.4077,0.2173,0.0562,0.0488,0.0024,0.0024,0.21,0.2759,0.0806
0.7104,0.3442,0.1514,0.1001,0.061,0.0024,0.0024,0.2881,0.2539,0.061
0.7715,0.3418,0.1294,0.1147,0.0415,0.0024,0.0024,0.3052,0.3198,0.0562
0.8032,0.3174,0.1416,0.1196,0.0562,0.0024,0.0024,0.3467,0.3711,0.0659
0.7568,0.3174,0.0879,0.1123,0.0439,0.0024,0.0244,0.4761,0.4541,0.2246
0.8521,0.4517,0.105,0.1025,0.083,0.0024,0.0195,0.3857,0.5029,0.1343
0.9497,0.52,0.1709,0.083,0.0708,0.0146,0.0366,0.3882,0.6592,0.1978
1.1279,0.459,0.1904,0.0903,0.0928,0.0195,0.0562,0.5078,0.6396,0.1855
0.9033,0.4419,0.1172,0.0952,0.1147,0.0024,0.0098,0.4541,0.6226,0.0903
0.8203,0.4858,0.1147,0.1001,0.0732,0.0024,0.0024,0.3491,0.4419,0.0781
0.8838,0.4565,0.0854,0.0952,0.0562,0.0024,0.0024,0.3296,0.4712,0.0806
0.918,0.3809,0.0684,0.0903,0.0415,0.0024,0.0024,0.3857,0.4761,0.0781
1.0132,0.52,0.1294,0.144,0.0635,0.0049,0.0098,0.4077,0.5713,0.0806
1.0352,0.4663,0.1172,0.1367,0.0684,0.0024,0.0122,0.5005,0.6348,0.0952
1.1353,0.4004,0.0977,0.1245,0.083,0.0024,0.0049,0.4761,0.7007,0.1221
1.0522,0.376,0.0903,0.1099,0.0806,0.0024,0.0073,0.4346,0.7056,0.1782
1.04,0.3735,0.0952,0.1001,0.0757,0.0024,0.0146,0.5151,0.6982,0.1929
1.1035,0.3931,0.0781,0.0708,0.105,0.0049,0.0269,0.5737,0.7275,0.1196
0.7715,0.4468,0.0708,0.0439,0.0635,0.0024,0.0171,0.437,0.708,0.1611
0.7593,0.4468,0.0684,0.0342,0.0562,0.0024,0.022,0.4419,0.6689,0.1831
0.8276,0.3833,0.0684,0.0317,0.0708,0.0024,0.0317,0.5981,0.6104,0.2002
0.7666,0.4297,0.0806,0.0684,0.1733,0.0049,0.0195,0.5029,0.7788,0.1538
0.8398,0.542,0.0952,0.0684,0.1953,0.0049,0.0195,0.6079,1.0596,0.1245
0.7373,0.4614,0.1074,0.0537,0.144,0.0049,0.0244,0.73,1.0107,0.1294
0.8057,0.6201,0.1123,0.0391,0.0781,0.0049,0.0195,0.6299,0.8887,0.1099
0.8545,0.4834,0.0928,0.0488,0.0537,0.0146,0.0391,0.7886,1.0791,0.1538
0.9009,0.4688,0.083,0.0537,0.0391,0.0171,0.0391,0.8032,1.1035,0.166
0.813,0.5493,0.0879,0.0854,0.0562,0.0195,0.0293,0.7715,1.1865,0.1587
0.8301,0.5249,0.0903,0.0757,0.0391,0.0024,0.0049,0.6323,0.7788,0.0806
0.8398,0.4736,0.0903,0.0928,0.0708,0.0024,0.0073,0.6714,0.8252,0.0903
0.9082,0.647,0.1416,0.1025,0.0659,0.0024,0.0098,0.6909,0.8374,0.083
0.918,0.5737,0.0977,0.0708,0.0439,0.0024,0.0146,0.6177,1.0156,0.083
0.8911,0.603,0.0952,0.0952,0.0464,0.0073,0.0269,0.7104,0.9985,0.0757
0.874,0.625,0.0928,0.1123,0.0439,0.0073,0.022,0.73,0.9448,0.0757
0.8325,0.603,0.0928,0.1001,0.0684,0.0146,0.0342,0.7739,1.2549,0.1025
0.9448,0.6274,0.2222,0.1489,0.144,0.0146,0.0366,0.8545,1.2183,0.1001
0.8521,0.7349,0.2295,0.1465,0.1221,0.0098,0.0317,0.813,1.0913,0.1172
0.8594,0.6763,0.1685,0.0977,0.0952,0.0024,0.0171,0.7764,1.0791,0.1074
0.9497,0.5908,0.1318,0.1318,0.1099,0.0024,0.0171,0.6958,0.9448,0.0903
0.8569,0.4272,0.0854,0.1099,0.0684,0.0024,0.0024,0.4907,0.5518,0.0903
0.7837,0.4028,0.0757,0.1318,0.0854,0.0024,0.0024,0.4443,0.5298,0.0781
0.752,0.4492,0.1221,0.0879,0.0562,0.0024,0.0024,0.4517,0.6885,0.0732
0.6348,0.2222,0.1318,0.1538,0.0928,0.0024,0.0024,0.3467,0.542,0.0806
0.6885,0.3662,0.0708,0.0952,0.1294,0.0024,0.0024,0.1611,0.293,0.0537
0.5225,0.4126,0.0464,0.0732,0.1636,0.0024,0.0073,0.2539,0.271,0.0439
0.5957,0.2808,0.0684,0.0781,0.0464,0.0024,0.0024,0.1489,0.2661,0.0317
0.542,0.21,0.0391,0.0586,0.0513,0.0024,0.0024,0.1172,0.2344,0.0293
0.5444,0.3003,0.0757,0.127,0.0781,0.0024,0.0024,0.0708,0.21,0.0146
0.5615,0.2686,0.0684,0.1367,0.0757,0.0024,0.0024,0.0684,0.2051,0.0098
0.7373,0.2246,0.0513,0.1465,0.0586,0.0024,0.0024,0.0854,0.1929,0.0171
0.7568,0.2197,0.0439,0.1367,0.0562,0.0024,0.0024,0.0903,0.1831,0.0171
0.6714,0.1538,0.0195,0.0903,0.0903,0.0024,0.0024,0.0928,0.2295,0.0439
0.7422,0.1221,0.0293,0.105,0.1538,0.0024,0.0024,0.1123,0.1587,0.0171
0.7031,0.1123,0.0171,0.105,0.1294,0.0024,0.0024,0.1025,0.1538,0.0146
0.7227,0.1538,0.0684,0.0513,0.0659,0.0024,0.0024,0.0854,0.1392,0.0024
0.5225,0.1318,0.0293,0.0977,0.0806,0.0024,0.0024,0.0439,0.2979,0.0049
0.4712,0.1782,0.0879,0.0732,0.0073,0.0024,0.0024,0.0684,0.2271,0.0171
0.564,0.1709,0.0757,0.0586,0.0317,0.0024,0.0024,0.061,0.1636,0.0195
0.6372,0.2051,0.0415,0.1343,0.0244,0.0024,0.0024,0.0513,0.2124,0.0024
0.481,0.2783,0.1123,0.105,0.0024,0.0024,0.0024,0.0488,0.1465,0.0024
0.4077,0.1611,0.0513,0.0488,0.0024,0.0024,0.0024,0.0391,0.1147,0.0024
0.4175,0.1099,0.0024,0.0024,0.0024,0.0024,0.0024,0.0415,0.0195,0.0024
0.3003,0.1074,0.0024,0.0024,0.0049,0.0024,0.0024,0.0269,0.0024,0.0024
0.1953,0.061,0.0342,0.0024,0.0024,0.0024,0.0024,0.0195,0.0098,0.0024
0.2246,0.0684,0.0342,0.0024,0.0024,0.0024,0.0024,0.0293,0.0513,0.0024
0.2319,0.1318,0.0244,0.0098,0.0024,0.0024,0.0024,0.0269,0.0293,0.0049
0.2515,0.1855,0.0269,0.0098,0.0024,0.0024,0.0024,0.0195,0.0122,0.0024
0.2368,0.1807,0.022,0.0049,0.0024,0.0024,0.0024,0.0195,0.0024,0.0024
0.2856,0.1855,0.0244,0.0024,0.0024,0.0024,0.0024,0.022,0.0049,0.0024
0.3174,0.2832,0.105,0.0537,0.022,0.0024,0.0073,0.0391,0.1025,0.0073
0.3394,0.2319,0.1172,0.0488,0.0024,0.0024,0.0024,0.0464,0.2686,0.0024
0.4272,0.2124,0.1196,0.0195,0.0024,0.0024,0.0024,0.0562,0.2271,0.0024
0.4712,0.4468,0.1514,0.0269,0.0195,0.0024,0.0024,0.0586,0.2832,0.0024
0.6274,0.6348,0.2563,0.1367,0.0562,0.0024,0.0024,0.061,0.6519,0.022
0.7031,0.9375,0.3149,0.2051,0.0854,0.0024,0.0049,0.0635,0.7935,0.0366
0.6812,0.8838,0.3101,0.2051,0.0854,0.0024,0.0024,0.061,0.7446,0.0391
0.52,0.4541,0.1685,0.0806,0.0342,0.0024,0.0024,0.0537,0.3101,0.0269
0.5371,0.542,0.1514,0.0879,0.0439,0.0024,0.0024,0.0562,0.5396,0.0244
0.4834,0.8008,0.1367,0.0342,0.022,0.0024,0.0024,0.0415,0.2856,0.0024
0.3174,0.5176,0.1563,0.0391,0.0073,0.0024,0.0024,0.0244,0.1758,0.0024
0.2808,0.4639,0.1318,0.0244,0.0024,0.0024,0.0024,0.0146,0.376,0.0024
0.2954,0.481,0.1074,0.0098,0.0024,0.0024,0.0024,0.0171,0.3101,0.0024
0.3149,0.3467,0.1294,0.0293,0.0024,0.0024,0.0024,0.0073,0.3174,0.0024
0.4077,0.4395,0.144,0.0269,0.0024,0.0024,0.0024,0.0342,0.3345,0.0073
0.4297,0.3711,0.1489,0.061,0.0024,0.0024,0.0024,0.022,0.4492,0.0024
0.6079,0.5664,0.1392,0.0513,0.0146,0.0024,0.0024,0.0488,0.4614,0.0122
0.5811,0.5273,0.1636,0.0684,0.0171,0.0024,0.0024,0.0464,0.4785,0.0122
0.5615,0.5615,0.1782,0.083,0.0342,0.0024,0.0024,0.0391,0.7422,0.0073
0.686,0.7324,0.1685,0.0732,0.0073,0.0024,0.0024,0.0537,0.4541,0.0146
0.6226,0.8325,0.2002,0.0537,0.0366,0.0024,0.0024,0.0586,0.5225,0.0171
0.5151,0.4688,0.1465,0.0977,0.0171,0.0024,0.0024,0.0488,0.4688,0.0317
0.5176,0.4395,0.1318,0.0806,0.0171,0.0024,0.0024,0.0537,0.4565,0.0293
0.52,0.5347,0.1953,0.0537,0.0024,0.0024,0.0024,0.061,0.3857,0.0171
0.5249,0.6201,0.2173,0.0684,0.0024,0.0024,0.0024,0.061,0.4126,0.0195
0.7861,0.6104,0.2148,0.0415,0.0098,0.0024,0.0049,0.1392,0.5518,0.0464
0.8398,0.7886,0.2563,0.0659,0.0513,0.0024,0.0024,0.2075,0.5151,0.0488
0.9106,0.6836,0.2808,0.0464,0.0269,0.0024,0.0098,0.2368,0.5005,0.083
0.957,0.6055,0.3198,0.0513,0.0317,0.0024,0.0122,0.3223,0.4834,0.0854
1.0059,0.7251,0.3516,0.0732,0.0293,0.0049,0.0293,0.5127,0.5078,0.0806
0.9277,0.5518,0.2271,0.0513,0.0586,0.0024,0.0024,0.3394,0.7031,0.0708
0.8325,0.6445,0.21,0.0537,0.0513,0.0024,0.0024,0.3174,0.5347,0.061
0.8716,0.5054,0.2661,0.0781,0.0342,0.0024,0.0024,0.2319,0.8813,0.0562
0.8179,0.4565,0.249,0.0732,0.0391,0.0024,0.0073,0.1953,1.0352,0.0635
0.7959,0.5469,0.2368,0.0684,0.0415,0.0024,0.0073,0.1978,1.062,0.0586
0.7837,0.7397,0.21,0.061,0.0366,0.0024,0.0073,0.2466,1.1182,0.061
0.7568,0.6641,0.1685,0.0586,0.022,0.0024,0.0024,0.2686,0.7959,0.0464
0.6982,0.6152,0.4614,0.1221,0.0342,0.0024,0.0049,0.2759,1.2207,0.0439
0.8398,0.5933,0.3564,0.0879,0.022,0.0049,0.0073,0.2783,1.0474,0.0439
0.8984,0.6665,0.3271,0.0732,0.0244,0.0073,0.0073,0.2637,0.9961,0.0513
0.9888,0.7959,0.271,0.0586,0.0342,0.0024,0.0024,0.2466,0.9937,0.0586
0.9497,0.7471,0.2026,0.0488,0.0366,0.0024,0.0024,0.2466,1.0913,0.083
0.8569,0.8179,0.21,0.105,0.0366,0.0073,0.0024,0.2466,1.1304,0.0806
0.813,0.6177,0.1978,0.1074,0.0342,0.0024,0.0024,0.3613,1.0278,0.0464
0.9131,0.6128,0.1685,0.0928,0.0244,0.0024,0.0024,0.332,0.9351,0.0513
0.8862,0.6689,0.2051,0.1074,0.0244,0.0024,0.0024,0.3076,1.0693,0.0488
0.9814,0.6934,0.2075,0.0977,0.0317,0.0024,0.0024,0.3223,1.0474,0.0513
1.0645,0.7886,0.2026,0.0903,0.0342,0.0024,0.0049,0.4175,1.04,0.0537
1.0254,0.6641,0.1538,0.0659,0.0122,0.0024,0.0024,0.4712,1.0278,0.0635
1.0571,0.6934,0.2393,0.1172,0.0366,0.0049,0.0049,0.3735,1.1304,0.0562
1.0791,0.7715,0.2368,0.1001,0.0317,0.0024,0.0024,0.3564,0.8569,0.0562
0.9326,0.5981,0.2393,0.0684,0.0391,0.0024,0.0024,0.4175,0.686,0.0757
0.8936,0.5859,0.2148,0.0513,0.0244,0.0024,0.0024,0.4004,0.6616,0.0684
0.8765,0.5615,0.2173,0.0806,0.0366,0.0024,0.0049,0.376,0.8936,0.0562
0.9497,0.5029,0.1929,0.0757,0.0366,0.0024,0.0049,0.4321,0.9668,0.0586
1.0156,0.5493,0.1831,0.0757,0.0317,0.0024,0.0073,0.5615,1.001,0.0635
1.1011,0.708,0.2051,0.1465,0.0415,0.0024,0.0098,0.4492,0.7715,0.0781
1.1719,0.6909,0.2441,0.2295,0.0781,0.0171,0.0146,0.5249,0.8716,0.0903
1.1328,0.7349,0.2466,0.2271,0.0854,0.0171,0.0098,0.5273,0.9814,0.0977
0.8179,0.5811,0.2026,0.1147,0.0562,0.0049,0.0073,0.5981,1.1694,0.083
0.8667,0.5737,0.2295,0.1196,0.0415,0.0049,0.0073,0.6543,1.106,0.0903
1.0913,0.498,0.1782,0.0781,0.0195,0.0024,0.0024,0.481,0.7373,0.0684
1.1816,0.5542,0.2783,0.127,0.0684,0.0049,0.022,0.5396,0.9497,0.0708
0.9106,0.6055,0.2246,0.105,0.0684,0.0024,0.0122,0.498,1.1572,0.0635
0.9424,0.752,0.2368,0.1221,0.0464,0.0024,0.0293,0.5664,1.1816,0.0635
0.8569,0.5151,0.2173,0.1318,0.0146,0.0024,0.0024,0.4248,1.0645,0.0757
0.9009,0.6104,0.2417,0.1465,0.022,0.0024,0.0024,0.4199,1.1182,0.0806
0.9448,0.7446,0.2637,0.1514,0.0269,0.0049,0.0024,0.4346,1.1621,0.0781
0.9082,0.7275,0.2368,0.1123,0.0171,0.0024,0.0049,0.4028,0.9155,0.0757
0.6812,0.5029,0.1855,0.0952,0.022,0.0024,0.0024,0.4077,0.8105,0.0781
0.6982,0.4785,0.1807,0.105,0.0317,0.0024,0.0024,0.4102,0.8472,0.0806
0.8325,0.647,0.1733,0.1099,0.0366,0.0024,0.0024,0.437,0.8008,0.0806
0.9058,0.6592,0.2026,0.1245,0.0366,0.0024,0.0024,0.4199,0.8423,0.0757
0.9033,0.5786,0.2075,0.1147,0.0293,0.0024,0.0024,0.3809,0.7837,0.0708
0.7202,0.5469,0.2417,0.1294,0.0146,0.0024,0.0024,0.3149,0.7935,0.0708
0.7227,0.6885,0.2515,0.1343,0.0122,0.0024,0.0024,0.4224,0.9033,0.0732
0.8447,0.6421,0.1709,0.0781,0.0562,0.0024,0.0122,0.5762,1.0254,0.1099
0.8472,0.6128,0.1782,0.0708,0.0562,0.0024,0.0122,0.5811,1.0547,0.105
0.8228,0.5811,0.1709,0.0635,0.0513,0.0024,0.0146,0.5859,1.0815,0.1001
1.0254,0.6763,0.2686,0.0928,0.0098,0.0049,0.0146,0.5444,1.0376,0.0757
0.9058,0.4956,0.2539,0.1563,0.061,0.0024,0.0073,0.6885,1.2354,0.0903
0.7056,0.5762,0.2271,0.1172,0.061,0.0049,0.0098,0.5176,1.2573,0.0757
0.7983,0.6055,0.2246,0.1172,0.0464,0.0049,0.0293,0.5957,1.1938,0.0757
0.8179,0.6494,0.2026,0.1123,0.0415,0.0024,0.0269,0.5566,1.2402,0.0757
0.9009,0.6665,0.2148,0.1172,0.0513,0.0024,0.0195,0.6323,1.2476,0.0806
0.9399,0.5664,0.21,0.1123,0.0317,0.0024,0.0146,0.647,1.0669,0.0806
0.8789,0.5273,0.2026,0.105,0.0293,0.0024,0.0073,0.6201,0.9668,0.0708
0.6299,0.4663,0.249,0.1001,0.0122,0.0024,0.0024,0.3418,0.7324,0.0391
0.5566,0.4102,0.188,0.1221,0.0049,0.0024,0.0024,0.2441,0.835,0.0366
0.7446,0.3857,0.2124,0.1904,0.0244,0.0024,0.0024,0.2026,0.7886,0.0342
1.0449,0.5566,0.2075,0.166,0.0195,0.0024,0.0098,0.2466,0.7886,0.0537
1.1963,0.5542,0.4395,0.2124,0.083,0.0024,0.0122,0.3491,0.8252,0.061
1.1572,0.7813,0.3833,0.1929,0.083,0.0024,0.0122,0.3809,0.6787,0.0781
1.1084,0.8423,0.3418,0.2026,0.083,0.0024,0.0098,0.3638,0.6201,0.083
1.0474,0.6494,0.2393,0.2441,0.0586,0.0024,0.0024,0.2661,0.6421,0.0684
1.0181,0.5713,0.2344,0.2905,0.0391,0.0024,0.0024,0.21,0.813,0.0684
0.8447,0.7129,0.2515,0.2466,0.0146,0.0024,0.0024,0.1538,0.8618,0.0464
0.7349,0.5933,0.1685,0.1318,0.0049,0.0024,0.0024,0.2222,0.8984,0.0488
0.7227,0.5225,0.1709,0.1392,0.0049,0.0024,0.0024,0.1953,0.7007,0.0562
0.6641,0.752,0.2954,0.1343,0.0049,0.0024,0.0024,0.1196,0.8154,0.0073
0.4834,0.6689,0.2075,0.1221,0.0171,0.0024,0.0024,0.0586,0.7104,0.0195
0.4761,0.6323,0.2026,0.1172,0.0098,0.0024,0.0024,0.0537,0.6665,0.0146
0.4712,0.5542,0.21,0.1074,0.0024,0.0024,0.0024,0.0488,0.6055,0.0073
0.2417,0.1123,0.0122,0.0024,0.0024,0.0049,0.0024,0.0732,0.0244,0.0024
0.2197,0.0562,0.0464,0.0024,0.0024,0.0024,0.0024,0.1294,0.0537,0.0024
0.2539,0.0122,0.0903,0.0049,0.0024,0.0024,0.0024,0.1758,0.1953,0.0146
0.2661,0.0293,0.0952,0.0024,0.0073,0.0024,0.0024,0.2271,0.1563,0.0146
0.3467,0.0464,0.0684,0.0024,0.0073,0.0024,0.0024,0.271,0.1318,0.0146
0.3687,0.0806,0.0562,0.0073,0.0024,0.0024,0.0024,0.271,0.1782,0.0195
0.5786,0.188,0.1929,0.0732,0.0146,0.0024,0.0024,0.2002,0.1929,0.0244
0.6421,0.1904,0.2002,0.0781,0.0195,0.0024,0.0073,0.2051,0.2808,0.0391
0.7153,0.1782,0.2026,0.0806,0.0024,0.0024,0.0024,0.1465,0.5957,0.061
0.7275,0.1929,0.2271,0.0952,0.0024,0.0024,0.0024,0.144,0.6348,0.0708
0.7715,0.2246,0.2905,0.1147,0.0049,0.0024,0.0024,0.166,0.7764,0.0659
0.7617,0.2344,0.3296,0.0977,0.0024,0.0024,0.0024,0.166,0.6543,0.0562
0.7715,0.2832,0.3125,0.0928,0.0024,0.0024,0.0073,0.1831,0.6152,0.0684
0.6909,0.332,0.2441,0.1001,0.0122,0.0024,0.0024,0.2808,0.9448,0.0757
0.6519,0.3003,0.2441,0.0928,0.0195,0.0024,0.0024,0.3271,1.0474,0.0635
0.6934,0.3638,0.1611,0.0781,0.0317,0.0024,0.0073,0.5151,0.8545,0.0977
0.7129,0.4077,0.1636,0.0928,0.0293,0.0024,0.0073,0.5249,0.8813,0.0952
0.7056,0.4028,0.2441,0.1099,0.0195,0.0024,0.0049,0.3247,0.9326,0.0757
0.7886,0.3931,0.2222,0.1123,0.0366,0.0024,0.0073,0.3418,1.1328,0.0806
0.8032,0.3931,0.2246,0.1172,0.0366,0.0024,0.0098,0.3638,1.2573,0.0854
0.7104,0.4175,0.2026,0.105,0.0293,0.0049,0.0122,0.4272,1.2646,0.0684
0.6372,0.4102,0.1782,0.0757,0.0342,0.0024,0.0098,0.4785,1.2671,0.0586
0.7324,0.5566,0.249,0.0928,0.0562,0.0024,0.0024,0.5615,1.3525,0.0439
0.7104,0.4688,0.2686,0.1196,0.127,0.0244,0.0366,0.6616,1.7676,0.1318
0.7422,0.5054,0.3125,0.105,0.1196,0.0195,0.0391,0.7031,2.0435,0.1196
0.9058,0.52,0.3198,0.1025,0.1392,0.0171,0.0415,0.8496,2.1338,0.1123
0.9937,0.5859,0.2539,0.0781,0.1416,0.0171,0.0391,0.8691,2.1606,0.1147
0.8325,0.4297,0.4053,0.1147,0.1172,0.0171,0.0562,0.8105,2.1143,0.1099
0.8032,0.4663,0.3223,0.0928,0.1245,0.0244,0.0708,0.9253,2.041,0.1367
0.7764,0.4102,0.2148,0.0464,0.1099,0.0073,0.0464,0.9155,1.4429,0.083
0.7886,0.376,0.2686,0.0439,0.105,0.0073,0.0415,0.9326,1.4331,0.0806
0.7324,0.3394,0.3711,0.0708,0.1025,0.0049,0.0342,0.9277,1.4722,0.0732
0.813,0.4321,0.4419,0.0977,0.1294,0.0073,0.0537,1.0815,1.8677,0.105
0.8301,0.5396,0.3271,0.1221,0.1294,0.0244,0.0806,1.2427,1.6553,0.1123
0.7739,0.459,0.3174,0.1343,0.1147,0.0244,0.0757,1.1914,1.6064,0.105
0.7251,0.498,0.4199,0.1489,0.1123,0.0244,0.0708,1.1133,1.7725,0.1099
0.7568,0.5469,0.5273,0.1611,0.1294,0.022,0.0586,0.9863,1.9336,0.1318
0.7666,0.5884,0.5225,0.166,0.1318,0.0171,0.0488,0.9399,1.9214,0.1318
0.7568,0.564,0.4565,0.144,0.1123,0.0146,0.0391,0.9497,1.8701,0.1147
0.6641,0.5811,0.4517,0.1172,0.083,0.0244,0.0708,1.1768,1.8506,0.1196
0.6665,0.5615,0.4443,0.1196,0.0806,0.0293,0.0684,1.1084,1.9971,0.1172
0.7056,0.6421,0.4443,0.1367,0.0879,0.0293,0.0635,1.1548,2.0435,0.1294
0.7666,0.6323,0.5908,0.2393,0.1318,0.0171,0.0439,1.3965,1.6943,0.1392
0.7227,0.6641,0.4565,0.2051,0.1196,0.0146,0.0391,1.1597,1.8213,0.1318
0.6665,0.647,0.4224,0.2051,0.1172,0.0195,0.0415,1.1011,1.8237,0.1392
0.6543,0.5908,0.415,0.21,0.1123,0.0195,0.0439,1.1328,1.9751,0.1392
0.6689,0.6006,0.481,0.2222,0.1099,0.0195,0.0439,1.1426,2.0898,0.1367
0.8936,0.6714,0.5493,0.2222,0.0757,0.022,0.0537,1.0059,1.8091,0.1367
0.9448,0.5347,0.4419,0.1538,0.0708,0.0098,0.061,1.084,1.8115,0.1465
0.9424,0.6519,0.4272,0.1758,0.0537,0.0049,0.0562,1.1816,1.5796,0.1221
0.9155,0.6738,0.4321,0.1953,0.0464,0.0073,0.0635,1.2695,1.5771,0.105
0.8472,0.5884,0.5859,0.2637,0.0806,0.0293,0.0952,1.5454,1.7847,0.1392
0.8325,0.603,0.5444,0.2417,0.0879,0.0269,0.0903,1.3843,1.6016,0.1245
0.7861,0.6445,0.4346,0.1709,0.0708,0.0244,0.0757,1.1646,1.5234,0.0928
0.5835,0.6689,0.3052,0.1514,0.0586,0.0098,0.061,0.9985,1.2964,0.083
0.603,0.5103,0.2563,0.1489,0.0537,0.0024,0.0537,0.9668,1.189,0.0928
0.5835,0.4321,0.4443,0.1733,0.0464,0.0098,0.0635,0.8228,1.3257,0.0806
0.564,0.2734,0.3394,0.2295,0.061,0.0024,0.0171,0.7544,1.3818,0.061
0.5469,0.2173,0.4761,0.3027,0.1563,0.0073,0.0098,0.7495,1.4722,0.1343
0.5054,0.2173,0.459,0.3076,0.2124,0.0049,0.0049,0.6763,1.4478,0.1196
0.4858,0.2539,0.3271,0.2686,0.2148,0.0049,0.0098,0.625,1.167,0.0854
0.5859,0.3223,0.2856,0.2344,0.1953,0.0024,0.0122,0.6958,1.0254,0.0781
0.8545,0.5493,0.4004,0.332,0.1074,0.0024,0.0195,0.6055,0.9351,0.0977
0.6274,0.4614,0.4272,0.293,0.0659,0.0024,0.0024,0.5493,0.8838,0.0684
0.7959,0.5981,0.3271,0.2002,0.0439,0.0024,0.0146,0.5664,0.8521,0.0708
0.6641,0.5078,0.3296,0.2905,0.0488,0.0024,0.0098,0.5249,0.8936,0.061
0.5908,0.4102,0.332,0.3101,0.0488,0.0024,0.0073,0.4688,0.8911,0.0635
0.7007,0.4688,0.1758,0.2148,0.0146,0.0024,0.0098,0.3418,0.8862,0.0562
0.6543,0.4102,0.2588,0.2808,0.0439,0.0024,0.0024,0.2539,0.8325,0.0366
0.5518,0.4321,0.4443,0.1514,0.0684,0.0024,0.0024,0.3027,0.9668,0.0317
0.5591,0.5518,0.3564,0.1758,0.0391,0.0024,0.0024,0.4614,0.8398,0.0366
0.5469,0.5029,0.3247,0.1709,0.0317,0.0024,0.0024,0.4053,0.8911,0.0342
0.52,0.4395,0.2783,0.1587,0.0269,0.0024,0.0024,0.3467,0.8496,0.0317
0.4712,0.3345,0.21,0.1343,0.022,0.0024,0.0024,0.2466,0.7056,0.0317
0.4956,0.1416,0.1709,0.1489,0.0049,0.0024,0.0024,0.1611,0.7935,0.0171
0.4663,0.249,0.1953,0.1099,0.0024,0.0024,0.0049,0.0854,0.6445,0.0024
0.4419,0.3271,0.1807,0.0879,0.0098,0.0024,0.0024,0.0977,0.625,0.0073
0.415,0.4541,0.1636,0.0879,0.0098,0.0024,0.0024,0.0928,0.6763,0.0122
0.376,0.2783,0.1123,0.0537,0.0024,0.0024,0.0024,0.0635,0.4126,0.0024
0.3223,0.1343,0.1416,0.0977,0.0098,0.0024,0.0024,0.0366,0.7593,0.0024
0.4712,0.1929,0.1172,0.0854,0.0049,0.0024,0.0024,0.0977,0.5371,0.0146
0.4346,0.1807,0.1685,0.105,0.0024,0.0024,0.0024,0.1025,0.5884,0.0122
0.4272,0.2759,0.1807,0.105,0.0024,0.0024,0.0024,0.0928,0.5811,0.0098
0.4932,0.3662,0.1538,0.0854,0.0024,0.0024,0.0024,0.0684,0.7959,0.0024
0.1611,0.0879,0.1489,0.1025,0.0049,0.0024,0.0024,0.0073,0.5347,0.0024
0.4468,0.0635,0.0684,0.0488,0.0024,0.0024,0.0024,0.0439,0.5371,0.0024
0.3857,0.0439,0.1514,0.0635,0.0024,0.0024,0.0024,0.0293,0.4297,0.0024
0.3003,0.0366,0.0977,0.0488,0.0024,0.0024,0.0024,0.022,0.3271,0.0024
0.4297,0.0952,0.1831,0.061,0.0024,0.0024,0.0049,0.0415,0.2637,0.0171
0.2832,0.1929,0.2905,0.0024,0.0024,0.0024,0.0049,0.0269,0.127,0.0024
0.3516,0.166,0.2563,0.0684,0.0024,0.0024,0.0024,0.0293,0.1978,0.0098
0.1685,0.1685,0.1416,0.1001,0.0024,0.0024,0.0024,0.1001,0.7202,0.0073
0.1831,0.1782,0.2222,0.1343,0.0024,0.0024,0.0024,0.1489,0.6689,0.0146
0.4688,0.2515,0.1099,0.0586,0.0024,0.0024,0.0024,0.1245,0.5444,0.0366
0.4834,0.2515,0.1514,0.0879,0.0024,0.0024,0.0024,0.1465,0.6177,0.0342
0.4443,0.3613,0.1636,0.105,0.0073,0.0024,0.0049,0.2441,0.6836,0.0464
0.603,0.4565,0.1758,0.061,0.0098,0.0024,0.0024,0.3076,0.9888,0.0586
0.5591,0.3931,0.1587,0.0732,0.0049,0.0024,0.0024,0.3149,1.0596,0.061
0.4883,0.2222,0.2417,0.1025,0.0146,0.0024,0.0024,0.3711,1.0107,0.0439
0.4956,0.2563,0.2344,0.1001,0.0146,0.0024,0.0024,0.4224,0.9692,0.0513
0.4932,0.3687,0.1978,0.083,0.0073,0.0024,0.0024,0.4224,0.9082,0.0586
0.5957,0.2295,0.1172,0.0806,0.0391,0.0024,0.0024,0.4761,1.2915,0.0562
0.6812,0.3882,0.1514,0.0854,0.0415,0.0049,0.0024,0.5371,1.4966,0.0757
0.6128,0.2612,0.1758,0.0952,0.0513,0.0024,0.0024,0.6152,1.7969,0.0757
0.6543,0.4395,0.1978,0.0879,0.0879,0.0098,0.0073,0.6226,1.6626,0.0903
0.8887,0.52,0.3369,0.105,0.083,0.0049,0.0146,0.6128,1.5063,0.1123
0.8057,0.4443,0.3345,0.1025,0.0732,0.0024,0.0122,0.6445,1.5137,0.0879
0.7568,0.4932,0.3101,0.1001,0.0586,0.0024,0.0293,0.752,1.4551,0.0708
0.7935,0.5347,0.3101,0.0977,0.0586,0.0024,0.0269,0.9351,1.3159,0.0903
0.7666,0.6323,0.3296,0.083,0.0684,0.0024,0.0269,0.8325,1.5698,0.0635
0.8472,0.5957,0.3516,0.105,0.1001,0.0195,0.0293,0.918,1.9482,0.0757
0.8081,0.5542,0.3979,0.1099,0.1074,0.0171,0.0269,0.8643,1.9336,0.0708
0.9106,0.5591,0.4468,0.1465,0.1318,0.0171,0.0391,0.8057,2.1655,0.083
0.957,0.6079,0.4639,0.1465,0.127,0.0195,0.0391,0.8667,2.2339,0.0879
0.9326,0.5835,0.4614,0.1392,0.1172,0.022,0.0488,0.8936,2.3364,0.0928
0.918,0.6812,0.5078,0.1514,0.1538,0.0146,0.0439,1.0107,2.2656,0.1367
0.8838,0.6616,0.4517,0.1416,0.166,0.0122,0.0317,0.9473,2.2144,0.1318
0.8228,0.7422,0.2563,0.0928,0.0903,0.0098,0.0269,0.9375,1.9531,0.1147
0.6885,0.5713,0.3198,0.1563,0.105,0.0171,0.0391,0.9033,2.6733,0.1025
0.813,0.6128,0.3125,0.1465,0.0854,0.0269,0.0659,1.0596,1.7993,0.1172
0.8521,0.6226,0.3101,0.1294,0.0757,0.0244,0.061,1.0938,1.7554,0.1172
0.8496,0.6665,0.354,0.1294,0.0757,0.0171,0.0537,1.062,1.8481,0.1221
0.7324,0.5566,0.4761,0.1514,0.0928,0.0171,0.0562,1.0278,1.9287,0.1587
0.7764,0.603,0.3711,0.1367,0.1123,0.0269,0.0757,0.9521,1.9946,0.1855
0.7959,0.5957,0.5933,0.1367,0.1001,0.0488,0.0903,1.2988,1.9702,0.1489
0.6689,0.5981,0.4272,0.2954,0.0732,0.0171,0.0879,1.167,1.8164,0.1758
0.708,0.5542,0.3784,0.2783,0.0708,0.0171,0.0806,1.1426,1.6748,0.1758
0.7178,0.6396,0.7129,0.2734,0.1123,0.0342,0.0781,1.3379,1.8042,0.2246
0.7349,0.7007,0.5566,0.2588,0.0732,0.0098,0.0537,1.0913,1.3477,0.1538
0.7275,0.647,0.498,0.2686,0.083,0.0122,0.0586,1.0449,1.5723,0.1489
0.6641,0.5566,0.3906,0.2808,0.0854,0.0122,0.0464,1.0059,1.7798,0.1294
0.6323,0.4956,0.4053,0.2686,0.0781,0.0098,0.0391,0.9448,1.7749,0.1221
0.6226,0.4468,0.4175,0.2441,0.0684,0.0049,0.0317,0.9839,1.6821,0.1196
0.5957,0.376,0.3857,0.2588,0.0488,0.0024,0.0073,0.9204,0.9668,0.1172
0.4639,0.354,0.5811,0.3784,0.0635,0.0024,0.0049,0.7178,1.1792,0.1929
0.5371,0.2563,0.5273,0.4102,0.0977,0.0024,0.0537,0.73,1.3989,0.3711
0.5249,0.2026,0.3906,0.3882,0.1025,0.0024,0.0732,0.7202,1.1963,0.3491
0.5493,0.2368,0.3125,0.3906,0.0781,0.0024,0.061,0.7178,1.0767,0.2832
0.5176,0.2588,0.3247,0.3833,0.0684,0.0024,0.0537,0.7349,1.0205,0.2466
0.5176,0.2759,0.3564,0.4126,0.0684,0.0024,0.0464,0.7251,0.9985,0.2148
0.5371,0.415,0.4419,0.4688,0.0635,0.0024,0.0293,0.625,1.0303,0.1514
0.4858,0.4004,0.3418,0.4297,0.061,0.0024,0.0171,0.4932,0.7935,0.0952
0.5469,0.3882,0.2881,0.3979,0.0317,0.0024,0.0024,0.4126,0.9546,0.0684
0.5786,0.4028,0.1978,0.2856,0.0537,0.0024,0.0024,0.3735,0.7153,0.0708
0.5981,0.4004,0.3247,0.2783,0.0537,0.0024,0.0024,0.3931,0.8911,0.0684
0.6494,0.4248,0.3442,0.3394,0.0342,0.0024,0.0049,0.3833,0.8838,0.0415
0.7227,0.5469,0.4297,0.3882,0.0537,0.0024,0.0024,0.4077,1.0254,0.0342
0.7788,0.4932,0.3613,0.2905,0.061,0.0024,0.0073,0.4004,0.8569,0.0439
0.6006,0.249,0.3833,0.3979,0.0537,0.0024,0.0049,0.4541,1.0767,0.0415
0.7959,0.3784,0.4395,0.3076,0.0732,0.0024,0.0024,0.3613,1.0156,0.0391
0.8154,0.459,0.4077,0.293,0.0684,0.0024,0.0024,0.3418,1.1133,0.0366
0.7935,0.4297,0.3198,0.249,0.0513,0.0024,0.0024,0.3271,1.0962,0.0513
0.6396,0.2808,0.2759,0.188,0.022,0.0024,0.0024,0.2808,0.5493,0.0342
0.6226,0.0952,0.2148,0.2148,0.0024,0.0024,0.0024,0.1904,0.8057,0.0244
0.708,0.1538,0.1758,0.2148,0.022,0.0024,0.0024,0.1733,0.6714,0.0366
0.7422,0.2466,0.1709,0.2026,0.0122,0.0024,0.0024,0.166,0.7617,0.0513
0.7544,0.2271,0.1416,0.1685,0.0293,0.0024,0.0024,0.1172,0.7227,0.0366
0.6982,0.2246,0.1831,0.1758,0.0293,0.0024,0.0024,0.1172,0.6958,0.0293
0.686,0.144,0.1196,0.1587,0.0122,0.0024,0.0049,0.1367,0.6055,0.0073
0.564,0.1709,0.1318,0.2002,0.0171,0.0024,0.0024,0.083,1.0449,0.022
0.5249,0.1782,0.1172,0.1001,0.0244,0.0024,0.0024,0.0977,0.5786,0.0171
0.4419,0.1025,0.1782,0.1416,0.022,0.0024,0.0024,0.0635,0.7349,0.0049
0.3296,0.083,0.1196,0.0732,0.0244,0.0024,0.0024,0.0488,0.4688,0.0024
0.3076,0.0732,0.0977,0.0781,0.0391,0.0024,0.0024,0.0488,0.4639,0.0024
0.2783,0.0586,0.0757,0.0708,0.0415,0.0024,0.0024,0.0464,0.4395,0.0024
0.3003,0.481,0.1147,0.0342,0.0024,0.0024,0.0024,0.0269,0.188,0.0024
0.4297,0.4395,0.1318,0.0146,0.0024,0.0024,0.0024,0.1343,0.0757,0.0024
0.3979,0.5249,0.1318,0.0342,0.0024,0.0024,0.0024,0.0879,0.1709,0.0049
0.3735,0.4956,0.1123,0.0244,0.0024,0.0024,0.0024,0.0879,0.1514,0.0024
0.3662,0.4639,0.0952,0.0122,0.0024,0.0024,0.0024,0.1025,0.1318,0.0049
0.3687,0.4663,0.0928,0.0024,0.0024,0.0024,0.0024,0.1025,0.1147,0.0098
0.4639,0.4248,0.0757,0.0024,0.0073,0.0024,0.0024,0.0928,0.0781,0.0073
0.4248,0.3052,0.1001,0.0024,0.0122,0.0024,0.0024,0.0928,0.0977,0.0024
0.4761,0.2515,0.1221,0.0464,0.0024,0.0024,0.0024,0.1221,0.1587,0.0122
0.5298,0.5396,0.1465,0.0513,0.0049,0.0024,0.0073,0.1489,0.1538,0.0171
0.5664,0.7178,0.1538,0.0537,0.0146,0.0024,0.0195,0.1685,0.1807,0.0244
0.8789,0.8862,0.2222,0.1025,0.0586,0.0024,0.0342,0.2881,0.4688,0.0806
0.979,0.7471,0.2759,0.127,0.0708,0.0024,0.0293,0.3027,0.7593,0.1001
0.769,0.4956,0.2661,0.1221,0.0269,0.0024,0.0073,0.3442,0.5859,0.0854
0.7446,0.4688,0.249,0.144,0.0244,0.0024,0.0098,0.4004,0.5786,0.083
0.625,0.4028,0.1758,0.127,0.0928,0.0024,0.0195,0.6738,0.4395,0.0635
0.6519,0.4883,0.2637,0.1636,0.1782,0.0024,0.0146,0.5957,0.4663,0.0732
0.6421,0.5444,0.2148,0.2368,0.0684,0.0049,0.0171,0.4541,0.6372,0.0488
0.686,0.5591,0.21,0.3027,0.1001,0.0024,0.0098,0.498,0.7007,0.0854
0.835,0.6128,0.1904,0.2588,0.1489,0.0024,0.0122,0.4956,0.7031,0.0879
0.8301,0.5981,0.166,0.2222,0.1196,0.0024,0.0122,0.4907,0.6274,0.0952
0.9424,0.6934,0.1563,0.2148,0.0903,0.0049,0.0171,0.4956,0.7031,0.105
0.9692,0.7544,0.1758,0.2759,0.0952,0.0098,0.022,0.5566,0.7935,0.1172
0.8618,0.6543,0.21,0.3101,0.0659,0.0073,0.0171,0.481,0.8203,0.1074
0.8228,0.6152,0.2344,0.2734,0.0464,0.0024,0.0171,0.4248,0.7129,0.0854
0.8594,0.52,0.1782,0.2222,0.022,0.0024,0.0269,0.5249,0.5347,0.0903
0.8765,0.5981,0.1782,0.2197,0.0195,0.0049,0.0342,0.5542,0.5103,0.0952
0.8862,0.7251,0.1978,0.2466,0.0171,0.0049,0.0342,0.5371,0.5347,0.1001
0.9009,0.7373,0.2124,0.2637,0.0195,0.0049,0.0317,0.5176,0.5957,0.1074
0.8887,0.6812,0.2661,0.3003,0.0488,0.0049,0.0269,0.564,0.73,0.0977
0.9424,0.6055,0.1636,0.2954,0.0635,0.0171,0.0269,0.6274,0.8594,0.0732
0.8716,0.5273,0.1538,0.3003,0.0708,0.0195,0.0171,0.6616,0.9473,0.0757
0.8545,0.5151,0.1489,0.2661,0.0635,0.0195,0.0171,0.6982,0.9326,0.0806
0.8862,0.5615,0.1538,0.2222,0.0513,0.0024,0.0195,0.8276,0.8398,0.0781
0.9985,0.6299,0.1831,0.2051,0.0806,0.0049,0.0342,0.8862,1.2207,0.1025
0.9766,0.6714,0.1733,0.2197,0.0708,0.0171,0.0586,0.9009,1.145,0.144
0.9253,0.7764,0.3003,0.2881,0.0757,0.0122,0.0488,0.8228,1.3379,0.127
0.8716,0.6885,0.4224,0.3857,0.1172,0.0171,0.0537,1.2817,1.7456,0.1465
1.0059,0.5981,0.3955,0.3394,0.1099,0.0244,0.0635,1.333,1.6626,0.1538
1.0718,0.5811,0.2612,0.2515,0.083,0.0098,0.0562,1.1914,1.543,0.1172
0.9424,0.6689,0.3247,0.2856,0.0952,0.0024,0.0171,0.9766,1.2402,0.0952
0.9302,0.6592,0.2759,0.2661,0.083,0.0073,0.0293,1.0107,1.0571,0.0879
1.0498,0.7007,0.3101,0.3149,0.083,0.0122,0.0488,1.0986,1.0522,0.1001
1.04,0.6982,0.3052,0.3638,0.0879,0.0122,0.0537,1.0522,1.0303,0.1001
1.0352,0.7373,0.3223,0.4419,0.0952,0.022,0.061,1.1694,1.2036,0.1221
0.9277,0.7349,0.2783,0.3223,0.0903,0.0342,0.0928,1.3135,1.4404,0.188
0.918,0.7422,0.2344,0.2832,0.0879,0.0244,0.0806,1.2939,1.4941,0.1855
1.0059,0.6689,0.2417,0.3052,0.1001,0.0342,0.0854,1.4502,1.7261,0.1709
1.0229,0.6055,0.2295,0.2881,0.0928,0.0269,0.0635,1.1279,1.4648,0.1318
1.0083,0.5908,0.2173,0.2832,0.0903,0.0195,0.0562,1.1426,1.3843,0.1245
1.0254,0.5396,0.2539,0.4028,0.1123,0.0098,0.0439,1.167,1.4233,0.1416
0.8984,0.5859,0.1855,0.3979,0.1025,0.0024,0.0488,1.0986,1.2451,0.1855
0.9399,0.6006,0.188,0.4468,0.1147,0.0049,0.0464,1.0693,1.3965,0.2051
1.1621,0.6616,0.3101,0.3931,0.1489,0.0293,0.0928,1.1841,1.3428,0.1807
1.1768,0.6836,0.2222,0.376,0.0977,0.0342,0.0952,1.3892,1.6089,0.1636
1.1597,0.7642,0.2515,0.376,0.0879,0.0391,0.0928,1.4185,1.6333,0.1709
1.0767,0.8228,0.2417,0.3516,0.0879,0.0342,0.0903,1.3184,1.5625,0.1855
0.9766,0.7275,0.2246,0.3125,0.0854,0.0269,0.0879,1.3135,1.3672,0.2246
0.8179,0.5713,0.2393,0.3687,0.0854,0.0024,0.0586,1.1694,1.1255,0.1758
0.564,0.4736,0.1636,0.3052,0.0635,0.0024,0.0195,0.8276,0.8496,0.0952
0.5322,0.3101,0.1733,0.2979,0.0732,0.0024,0.0195,0.7373,0.8667,0.0928
0.4395,0.2295,0.1636,0.3589,0.0903,0.0024,0.0024,0.6372,1.1401,0.0879
0.4346,0.2026,0.1294,0.3711,0.0757,0.0024,0.0049,0.6909,1.1621,0.0586
0.5103,0.2222,0.1831,0.3516,0.1221,0.0024,0.0049,0.7056,1.1768,0.0415
0.5078,0.3857,0.188,0.3174,0.127,0.0024,0.0073,0.6226,1.1523,0.0366
0.4785,0.3564,0.2002,0.3735,0.0757,0.0024,0.0024,0.2539,1.0815,0.0293
0.5566,0.4712,0.1929,0.3516,0.0708,0.0024,0.0024,0.249,1.0425,0.0415
0.5762,0.4907,0.1904,0.3369,0.0684,0.0024,0.0024,0.2417,0.9961,0.0439
0.5225,0.3638,0.21,0.3101,0.0659,0.0024,0.0024,0.2515,0.9229,0.0366
0.73,0.5981,0.2905,0.332,0.0342,0.0024,0.0098,0.3809,0.7593,0.0293
0.6665,0.7617,0.2686,0.3711,0.0317,0.0024,0.0024,0.2246,0.8325,0.0366
0.7153,0.6763,0.2051,0.3394,0.0342,0.0024,0.0049,0.166,0.7837,0.0366
0.6982,0.625,0.2075,0.3125,0.0269,0.0024,0.0049,0.1514,0.835,0.0293
0.7129,0.542,0.1929,0.2808,0.0146,0.0024,0.0024,0.1147,0.7739,0.022
0.9424,0.2637,0.1074,0.332,0.0391,0.0024,0.0024,0.1367,0.5835,0.0269
0.9033,0.4785,0.1636,0.2588,0.0244,0.0024,0.0024,0.127,0.5786,0.0171
0.5835,0.5957,0.3149,0.2637,0.0098,0.0024,0.0024,0.0781,0.7886,0.0073
0.5322,0.5566,0.3174,0.2563,0.0073,0.0024,0.0024,0.0732,0.7813,0.0049
0.415,0.5542,0.3613,0.1953,0.0269,0.0024,0.0024,0.0464,0.9668,0.0024
0.4053,0.5664,0.2197,0.1929,0.0024,0.0024,0.0024,0.0366,0.7397,0.0024
0.3735,0.564,0.1929,0.1831,0.0024,0.0024,0.0024,0.0342,0.7666,0.0024
0.3979,0.5322,0.166,0.1709,0.0024,0.0024,0.0024,0.0439,0.8301,0.0024
0.4663,0.4883,0.1465,0.1611,0.0024,0.0024,0.0024,0.0562,0.8398,0.0024
0.5859,0.4297,0.1538,0.166,0.0049,0.0024,0.0024,0.1172,0.8643,0.0024
0.5054,0.4639,0.1538,0.1099,0.0049,0.0024,0.0024,0.1221,0.6079,0.0024
0.5249,0.5249,0.1367,0.0854,0.0049,0.0024,0.0024,0.1025,0.5566,0.0024
0.4492,0.4956,0.2661,0.1147,0.0024,0.0024,0.0024,0.0513,0.6567,0.0049
0.4102,0.6934,0.2368,0.144,0.0024,0.0024,0.0024,0.0439,0.7227,0.0024
0.4492,0.4858,0.1831,0.1074,0.0024,0.0024,0.0024,0.0391,0.5688,0.0024
0.4175,0.5225,0.1733,0.0684,0.0024,0.0024,0.0024,0.0269,0.437,0.0024
0.4419,0.5811,0.1904,0.1196,0.0024,0.0024,0.0024,0.0269,0.5859,0.0024
0.4126,0.5811,0.1538,0.1025,0.0024,0.0024,0.0024,0.0244,0.52,0.0024
0.332,0.5664,0.1807,0.0977,0.0024,0.0024,0.0024,0.0317,0.3613,0.0024
0.3711,0.7129,0.2075,0.0708,0.0024,0.0024,0.0024,0.0293,0.5811,0.0024
0.3589,0.6567,0.2222,0.0635,0.0024,0.0024,0.0024,0.0366,0.3955,0.0024
0.2197,0.2295,0.1001,0.0317,0.0024,0.0024,0.0024,0.0659,0.3101,0.0049
0.5811,0.3442,0.1074,0.0366,0.0024,0.0024,0.0024,0.083,0.4199,0.0195
0.5371,0.3174,0.0928,0.0293,0.0024,0.0024,0.0024,0.105,0.4126,0.0195
0.6079,0.3101,0.105,0.0244,0.0049,0.0024,0.0049,0.1489,0.3882,0.022
0.6812,0.4028,0.1587,0.0879,0.0024,0.0024,0.0024,0.1514,0.4883,0.0293
0.6079,0.4419,0.1587,0.0903,0.0073,0.0024,0.0024,0.1367,0.5371,0.0293
0.5151,0.3589,0.1733,0.0952,0.0122,0.0024,0.0024,0.166,0.5298,0.0269
0.5127,0.3271,0.1538,0.0732,0.0098,0.0024,0.0024,0.2051,0.4834,0.0415
0.6079,0.3198,0.0977,0.0317,0.0024,0.0024,0.0024,0.1782,0.4248,0.0439
0.5542,0.2148,0.0952,0.0415,0.0024,0.0024,0.0024,0.1294,0.4272,0.0293
0.6421,0.4004,0.0854,0.0098,0.0171,0.0024,0.0049,0.3076,0.7617,0.0073
0.6421,0.3711,0.0806,0.0049,0.0171,0.0024,0.0073,0.3442,0.7837,0.0073
0.6909,0.4395,0.0977,0.0293,0.0195,0.0024,0.0024,0.3223,0.7422,0.0293
0.5786,0.3271,0.1489,0.0635,0.0415,0.0024,0.0024,0.3882,0.8911,0.0415
0.4883,0.4175,0.0806,0.0366,0.0488,0.0024,0.0024,0.3613,1.1206,0.0537
0.5151,0.3784,0.0757,0.0317,0.0464,0.0024,0.0024,0.3418,1.04,0.0488
0.5273,0.2734,0.0732,0.022,0.0317,0.0024,0.0024,0.3662,0.9546,0.0391
0.5322,0.293,0.0781,0.0195,0.0269,0.0024,0.0024,0.3931,0.9351,0.0366
0.52,0.3906,0.2051,0.0562,0.0684,0.0098,0.0171,0.3101,1.062,0.0439
0.5688,0.564,0.166,0.0464,0.061,0.0024,0.0049,0.4419,0.9668,0.0366
0.498,0.3491,0.1953,0.061,0.0879,0.0024,0.0073,0.5273,1.0645,0.0488
0.4956,0.4443,0.1855,0.0537,0.083,0.0024,0.0171,0.5884,1.1475,0.0439
1.0474,0.0659,0.1636,0.3125,0.0391,0.0024,0.0024,0.2637,0.5347,0.0488
1.2305,0.0854,0.21,0.437,0.0317,0.0024,0.0073,0.3516,0.7007,0.0342
1.2207,0.0732,0.1685,0.4199,0.0122,0.0024,0.0122,0.3711,0.8374,0.0684
1.3721,0.0757,0.1855,0.3857,0.0269,0.0024,0.0244,0.4712,0.686,0.0806
1.3892,0.0903,0.2661,0.3711,0.0439,0.0024,0.0269,0.4468,0.7471,0.083
1.5527,0.1392,0.2002,0.3906,0.0464,0.0098,0.0562,0.4932,1.0352,0.0757
1.8481,0.2173,0.3955,0.6152,0.0635,0.022,0.0928,0.5518,1.0913,0.1807
1.6797,0.1978,0.2832,0.5127,0.0391,0.0098,0.0708,0.5249,0.9497,0.1489
1.6089,0.1758,0.249,0.4907,0.0293,0.0073,0.0635,0.5103,0.9546,0.127
1.5796,0.1636,0.2734,0.3857,0.0269,0.0146,0.0708,0.5029,0.7227,0.1221
1.4746,0.1758,0.3613,0.5225,0.0806,0.022,0.0757,0.4688,0.7788,0.166
1.4868,0.1733,0.4028,0.5078,0.0732,0.022,0.0806,0.4858,0.7422,0.1563
1.5601,0.2441,0.3247,0.5396,0.0684,0.0293,0.1099,0.6763,0.835,0.1733
1.4355,0.2124,0.3516,0.4712,0.0659,0.0342,0.1025,0.5933,0.9497,0.1953
1.4551,0.21,0.3442,0.4541,0.0659,0.0342,0.1074,0.5933,0.9937,0.21
1.3159,0.2002,0.5103,0.5127,0.0537,0.0366,0.1099,0.7104,1.1572,0.1367
1.145,0.1758,0.4736,0.5225,0.0708,0.0293,0.083,0.6763,1.0229,0.1758
1.1768,0.1782,0.4443,0.5469,0.0537,0.022,0.0806,0.7104,1.0889,0.1733
1.2451,0.1343,0.4126,0.4663,0.0342,0.0024,0.0659,0.6934,1.1816,0.1611
1.8237,0.2344,0.4053,0.4639,0.0342,0.0269,0.1367,0.9497,1.0205,0.166
1.5796,0.2466,0.481,0.4126,0.0366,0.022,0.1025,0.9668,1.2012,0.144
1.6382,0.2197,0.4346,0.3662,0.0342,0.0195,0.0903,0.9058,1.1255,0.1587
1.6309,0.1978,0.4102,0.3467,0.0317,0.0195,0.0806,0.8716,1.0571,0.1685
1.8726,0.2832,0.4224,0.2539,0.0342,0.0415,0.1172,0.9668,1.0425,0.1904
1.6113,0.2734,0.415,0.293,0.0366,0.0464,0.1538,1.3672,1.0449,0.1807
1.5869,0.2734,0.4688,0.3369,0.0513,0.0464,0.1709,1.3672,1.0815,0.1929
1.6528,0.293,0.437,0.3394,0.0586,0.0513,0.1807,1.394,1.0181,0.2002
1.6968,0.3711,0.4126,0.3101,0.0537,0.0562,0.1782,1.2964,0.8472,0.1929
1.8335,0.3296,0.4492,0.3418,0.0488,0.0488,0.1636,1.1963,0.8643,0.1831
1.8555,0.3247,0.4712,0.3662,0.0513,0.0513,0.1587,1.2256,0.8521,0.1807
1.7993,0.271,0.4932,0.3833,0.0586,0.0366,0.127,1.1206,0.7959,0.1514
1.8628,0.2832,0.5542,0.3979,0.061,0.0391,0.1367,1.1572,0.7983,0.1465
1.6113,0.2881,0.6128,0.4785,0.0659,0.0366,0.127,1.0498,1.1743,0.1587
1.4063,0.2271,0.4443,0.4077,0.0439,0.022,0.1001,1.1133,0.9497,0.1709
1.2915,0.2466,0.52,0.3638,0.0342,0.0244,0.1294,0.8862,0.7349,0.1123
1.3086,0.2344,0.5151,0.3687,0.0244,0.0146,0.1001,0.9985,0.874,0.0928
1.2842,0.2173,0.5029,0.3516,0.0171,0.0146,0.1001,1.1572,1.0327,0.0854
1.2598,0.2002,0.4785,0.3491,0.0146,0.0098,0.0952,1.1182,1.0425,0.0781
1.1108,0.1953,0.4541,0.3564,0.0171,0.0049,0.0586,0.7153,0.9521,0.0952
1.123,0.188,0.3955,0.3613,0.0146,0.0122,0.0708,0.7129,0.9521,0.1245
0.8081,0.0879,0.3027,0.2612,0.0024,0.0024,0.0342,0.5518,0.6812,0.0879
0.5469,0.0244,0.3125,0.1807,0.0049,0.0024,0.0049,0.4443,0.6055,0.0098
0.7129,0.0488,0.3247,0.2075,0.0024,0.0024,0.0049,0.5151,0.6079,0.0122
0.6934,0.1172,0.3394,0.2441,0.0024,0.0024,0.0024,0.4517,0.6128,0.0195
0.6226,0.1147,0.2417,0.2319,0.0024,0.0024,0.0049,0.4272,0.6519,0.0366
0.5688,0.105,0.2441,0.2148,0.0024,0.0024,0.0049,0.4297,0.73,0.0317
0.5347,0.0781,0.2295,0.1514,0.0024,0.0024,0.0024,0.3833,0.6543,0.0269
0.3027,0.0879,0.1367,0.0684,0.0024,0.0024,0.0024,0.4053,0.4004,0.0342
0.3052,0.0098,0.0024,0.0024,0.0024,0.0024,0.0024,0.0439,0.0024,0.0024
0.9082,0.0269,0.0562,0.0024,0.0171,0.0024,0.0024,0.1172,0.0684,0.0659
0.7568,0.0024,0.0293,0.0195,0.0073,0.0024,0.0024,0.0952,0.0928,0.0366
0.9473,0.0366,0.0513,0.0415,0.0317,0.0024,0.0024,0.1636,0.144,0.0732
0.7959,0.2539,0.0635,0.0635,0.0366,0.0024,0.0024,0.1611,0.1001,0.0977
0.8984,0.1709,0.061,0.0537,0.0024,0.0024,0.0024,0.1587,0.2368,0.0952
1.1182,0.1025,0.0781,0.1025,0.0244,0.0024,0.0122,0.2954,0.4736,0.0781
1.2061,0.1245,0.0732,0.0879,0.0342,0.0024,0.0293,0.3979,0.4199,0.0854
1.0913,0.0781,0.0415,0.0757,0.0024,0.0024,0.0024,0.3027,0.2441,0.0732
1.1743,0.0659,0.1807,0.105,0.0146,0.0024,0.0073,0.2661,0.3833,0.1074
1.1597,0.0977,0.1685,0.1904,0.0269,0.0024,0.022,0.3979,0.564,0.0879
1.0986,0.105,0.1318,0.2026,0.0342,0.0024,0.0244,0.3491,0.5469,0.1221
1.4209,0.1294,0.2368,0.2661,0.0195,0.0024,0.0146,0.3296,0.5396,0.1172
1.3647,0.1123,0.1953,0.2319,0.0098,0.0024,0.0098,0.3223,0.5127,0.105
1.4551,0.0732,0.1709,0.2344,0.0171,0.0024,0.0049,0.3247,0.5396,0.1001
1.3306,0.0806,0.2075,0.21,0.0293,0.0024,0.0122,0.3198,0.7813,0.1099
1.3843,0.0903,0.21,0.1855,0.0293,0.0049,0.0244,0.3613,0.7446,0.1172
1.3721,0.1733,0.3052,0.2124,0.061,0.0073,0.0464,0.4028,0.7959,0.1416
1.5063,0.127,0.3247,0.3003,0.0439,0.0122,0.0635,0.5493,0.7666,0.1221
1.521,0.1294,0.3467,0.3467,0.0513,0.0122,0.0635,0.5493,0.791,0.1294
1.2891,0.0977,0.2832,0.3149,0.0391,0.0049,0.0415,0.4663,0.6763,0.1172
1.1865,0.0952,0.3101,0.2344,0.0342,0.0024,0.0293,0.4858,0.6934,0.0952
1.0962,0.0928,0.332,0.2319,0.022,0.0024,0.0122,0.4517,0.8569,0.127
1.0059,0.1074,0.3857,0.1758,0.0024,0.0024,0.0244,0.4492,0.9106,0.1245
0.9863,0.1001,0.354,0.1514,0.0024,0.0024,0.0244,0.4492,0.8936,0.127
0.9937,0.0903,0.3198,0.2124,0.0293,0.0024,0.0146,0.4639,0.896,0.0854
1.1157,0.0928,0.3906,0.2417,0.0317,0.0024,0.0195,0.5273,0.9131,0.0879
1.2866,0.127,0.3564,0.2515,0.0317,0.0024,0.0293,0.5444,0.9912,0.0854
1.0645,0.1196,0.2271,0.2954,0.0195,0.0024,0.0122,0.4077,0.7178,0.0586
0.9717,0.0854,0.1514,0.3369,0.0024,0.0024,0.0073,0.3735,0.8057,0.0659
0.9033,0.0757,0.2173,0.3687,0.0049,0.0024,0.0073,0.3296,0.8105,0.061
0.9351,0.0806,0.2905,0.3027,0.0024,0.0024,0.0146,0.376,0.8789,0.083
0.896,0.1123,0.2344,0.3198,0.0024,0.0024,0.0317,0.5103,0.7593,0.0757
0.8716,0.1123,0.2368,0.3052,0.0024,0.0024,0.0269,0.4663,0.7007,0.0757
0.8374,0.1099,0.2441,0.2759,0.0049,0.0024,0.0195,0.4346,0.6201,0.0806
0.8252,0.1074,0.3418,0.3442,0.0146,0.0024,0.0146,0.4175,0.6519,0.1025
0.752,0.0854,0.3931,0.3125,0.0024,0.0024,0.0098,0.3564,0.5981,0.0854
0.8276,0.0513,0.3125,0.3442,0.0024,0.0024,0.0073,0.3809,0.8667,0.083
0.7739,0.0391,0.2979,0.3223,0.0024,0.0024,0.0024,0.3735,0.8423,0.0708
0.7886,0.0854,0.2881,0.2539,0.0122,0.0024,0.0244,0.5029,0.9058,0.0806
0.7983,0.0854,0.293,0.2563,0.0122,0.0024,0.022,0.5103,0.8545,0.0635
0.7251,0.0781,0.4224,0.271,0.0024,0.0024,0.0146,0.5151,0.8618,0.0513
0.73,0.083,0.3589,0.2295,0.0024,0.0024,0.0122,0.5493,0.8374,0.0439
0.7129,0.0781,0.3271,0.2197,0.0024,0.0024,0.0122,0.5469,0.8789,0.0537
0.8032,0.0806,0.3394,0.2856,0.0024,0.0024,0.022,0.5078,0.9888,0.0562
0.8228,0.083,0.3711,0.2197,0.0024,0.0024,0.0073,0.354,0.6445,0.0513
0.6006,0.0366,0.2393,0.2197,0.0024,0.0024,0.0024,0.2734,0.5981,0.0439
0.542,0.0366,0.2246,0.21,0.0024,0.0024,0.0024,0.2563,0.5396,0.0391
0.4028,0.0195,0.2197,0.1758,0.0024,0.0024,0.0024,0.2295,0.4419,0.0195
0.4102,0.0171,0.2051,0.1685,0.0024,0.0024,0.0024,0.2271,0.4443,0.0146
0.3638,0.0244,0.1514,0.1172,0.0024,0.0024,0.0024,0.2417,0.481,0.0146
0.3247,0.0391,0.1392,0.0977,0.0049,0.0024,0.0024,0.2539,0.5371,0.0122
0.5664,0.0537,0.1099,0.1099,0.0024,0.0024,0.0024,0.2417,0.481,0.0073
0.4565,0.0586,0.1929,0.1025,0.0073,0.0024,0.0024,0.2173,0.3882,0.0049
0.4175,0.061,0.2271,0.0952,0.0171,0.0024,0.0024,0.2124,0.3882,0.0073
